scansci Spectrometer Data File
--- Measurement Setting ---
Type: Sample Spectrum
Date: Fri Nov 22 18:02:05 2024
User: (Reserved by scansci)
Serial: (Reserved by scansci)
Channel: No. 11
Integration Time: 300
Average: 30
Boxcar: 50
Electrical Dark: No-corrected
Time Normalize: (Reserved by scansci)
Dual-beam: (Reserved by scansci)
Reference Ch: (Reserved by scansci)
--- Measurement Data ---
Pixel   Wavelength   Intensity
    0        162.5      782.325
    1      162.985      782.173
    2      163.469      781.971
    3      163.954      781.791
    4      164.439      781.638
    5      164.923      781.442
    6      165.408      781.235
    7      165.892      781.014
    8      166.377      780.814
    9      166.861      780.602
   10      167.345      780.381
   11       167.83      780.239
   12      168.314       780.19
   13      168.798      780.198
   14      169.282      780.288
   15      169.766      780.498
   16       170.25      780.859
   17      170.734      781.199
   18      171.218      781.402
   19      171.702      781.516
   20      172.185      781.526
   21      172.669       781.62
   22      173.153      781.765
   23      173.636      781.764
   24       174.12      781.695
   25      174.603      781.749
   26      175.087      781.959
   27       175.57      782.135
   28      176.053      782.198
   29      176.537      782.252
   30       177.02      782.372
   31      177.503      782.441
   32      177.986      782.432
   33      178.469      782.395
   34      178.952      782.378
   35      179.435      782.326
   36      179.918      782.223
   37      180.401      782.089
   38      180.884      781.928
   39      181.366      781.777
   40      181.849      781.672
   41      182.332      781.591
   42      182.814      781.495
   43      183.297       781.39
   44      183.779      781.294
   45      184.262      781.205
   46      184.744      781.126
   47      185.226      781.038
   48      185.708      780.913
   49      186.191      780.782
   50      186.673      780.695
   51      187.155      780.773
   52      187.637      780.846
   53      188.119      780.883
   54        188.6      780.905
   55      189.082       780.75
   56      189.564      780.463
   57      190.046      780.289
   58      190.527      780.204
   59      191.009      780.172
   60      191.491      780.019
   61      191.972      779.878
   62      192.454      779.916
   63      192.935      779.958
   64      193.416      780.026
   65      193.897      780.067
   66      194.379      780.059
   67       194.86      780.028
   68      195.341      779.999
   69      195.822      779.987
   70      196.303      780.009
   71      196.784      780.135
   72      197.265      780.301
   73      197.746      780.399
   74      198.226      780.448
   75      198.707      780.443
   76      199.188       780.14
   77      199.668      779.635
   78      200.149      779.459
   79      200.629      779.579
   80       201.11      779.764
   81       201.59      780.009
   82       202.07      780.289
   83       202.55      780.526
   84      203.031      780.776
   85      203.511      780.835
   86      203.991      780.747
   87      204.471      780.511
   88      204.951       780.19
   89      205.431      780.041
   90       205.91      780.081
   91       206.39      780.184
   92       206.87      780.213
   93      207.349      780.295
   94      207.829      780.394
   95      208.309      780.475
   96      208.788      780.611
   97      209.267      780.716
   98      209.747      780.762
   99      210.226       780.76
  100      210.705      780.709
  101      211.185      780.703
  102      211.664      780.752
  103      212.143      780.865
  104      212.622      781.016
  105      213.101      781.111
  106      213.579      781.184
  107      214.058       781.26
  108      214.537      781.344
  109      215.016      781.463
  110      215.494      781.613
  111      215.973      781.819
  112      216.452      782.039
  113       216.93      782.123
  114      217.408      782.139
  115      217.887      782.124
  116      218.365      782.072
  117      218.843      781.962
  118      219.321      781.823
  119      219.799      781.805
  120      220.278      781.896
  121      220.755      781.981
  122      221.233      781.966
  123      221.711      781.857
  124      222.189        781.8
  125      222.667      781.832
  126      223.144       781.81
  127      223.622      781.621
  128        224.1      781.424
  129      224.577      781.297
  130      225.055      781.187
  131      225.532      781.038
  132      226.009      780.911
  133      226.486      780.814
  134      226.964       780.73
  135      227.441      780.663
  136      227.918      780.658
  137      228.395      780.701
  138      228.872      780.779
  139      229.349      780.891
  140      229.826      780.995
  141      230.302      781.031
  142      230.779      781.066
  143      231.256      781.124
  144      231.732       781.16
  145      232.209      781.223
  146      232.685      781.289
  147      233.162      781.294
  148      233.638      781.305
  149      234.114      781.364
  150       234.59      781.421
  151      235.066      781.449
  152      235.543      781.457
  153      236.019      781.478
  154      236.495      781.516
  155       236.97      781.644
  156      237.446       781.83
  157      237.922      782.006
  158      238.398      782.174
  159      238.873      782.272
  160      239.349      782.406
  161      239.824      782.551
  162        240.3      782.513
  163      240.775      782.385
  164      241.251      782.344
  165      241.726      782.359
  166      242.201      782.446
  167      242.676      782.579
  168      243.151      782.704
  169      243.626      782.787
  170      244.101        782.8
  171      244.576      782.776
  172      245.051      782.606
  173      245.526      782.396
  174          246      782.297
  175      246.475      782.212
  176       246.95      782.172
  177      247.424      782.176
  178      247.899      782.199
  179      248.373       782.09
  180      248.847      781.765
  181      249.321      781.438
  182      249.796      781.129
  183       250.27      780.911
  184      250.744      780.853
  185      251.218      780.757
  186      251.692      780.705
  187      252.166      780.723
  188      252.639      780.707
  189      253.113      780.632
  190      253.587      780.593
  191       254.06      780.504
  192      254.534      780.357
  193      255.007      780.277
  194      255.481      780.152
  195      255.954      780.015
  196      256.427      779.931
  197      256.901      779.816
  198      257.374      779.739
  199      257.847      779.761
  200       258.32      779.812
  201      258.793      779.854
  202      259.266       779.88
  203      259.739      779.876
  204      260.211      779.823
  205      260.684      779.752
  206      261.157      779.769
  207      261.629      779.842
  208      262.102      779.866
  209      262.574      779.851
  210      263.046       779.83
  211      263.519      779.827
  212      263.991      779.738
  213      264.463      779.569
  214      264.935      779.489
  215      265.407      779.417
  216      265.879      779.333
  217      266.351      779.205
  218      266.823      779.034
  219      267.295       778.91
  220      267.766      778.854
  221      268.238      778.833
  222       268.71      778.808
  223      269.181      778.739
  224      269.653       778.71
  225      270.124      778.729
  226      270.595      778.686
  227      271.066      778.583
  228      271.538      778.513
  229      272.009      778.504
  230       272.48      778.568
  231      272.951      778.634
  232      273.422      778.646
  233      273.892       778.67
  234      274.363       778.75
  235      274.834      778.839
  236      275.305      778.968
  237      275.775      779.102
  238      276.246      779.162
  239      276.716      779.221
  240      277.186       779.24
  241      277.657      779.223
  242      278.127      779.256
  243      278.597      779.424
  244      279.067      779.649
  245      279.537      779.775
  246      280.007      779.817
  247      280.477       779.84
  248      280.947      779.901
  249      281.417          780
  250      281.886      780.088
  251      282.356      780.156
  252      282.825      780.241
  253      283.295      780.305
  254      283.764      780.298
  255      284.234      780.265
  256      284.703      780.131
  257      285.172      779.935
  258      285.641      779.767
  259       286.11      779.607
  260      286.579      779.504
  261      287.048      779.354
  262      287.517      779.181
  263      287.986      779.162
  264      288.454      779.266
  265      288.923      779.336
  266      289.392      779.316
  267       289.86        779.2
  268      290.329      779.143
  269      290.797      779.202
  270      291.265      779.242
  271      291.734      779.279
  272      292.202      779.353
  273       292.67      779.456
  274      293.138      779.511
  275      293.606      779.542
  276      294.074       779.57
  277      294.541      779.607
  278      295.009      779.686
  279      295.477      779.782
  280      295.944      779.893
  281      296.412      779.982
  282      296.879      780.035
  283      297.347      780.264
  284      297.814      780.513
  285      298.281      780.555
  286      298.749      780.582
  287      299.216      780.844
  288      299.683      781.226
  289       300.15       781.47
  290      300.616      781.656
  291      301.083      781.757
  292       301.55      781.853
  293      302.017      781.931
  294      302.483      781.983
  295       302.95      782.042
  296      303.416      782.075
  297      303.883      782.201
  298      304.349      782.423
  299      304.815      782.536
  300      305.281      782.557
  301      305.748      782.575
  302      306.214      782.615
  303       306.68      782.609
  304      307.146      782.617
  305      307.611      782.679
  306      308.077        782.7
  307      308.543      782.626
  308      309.008      782.511
  309      309.474      782.457
  310      309.939      782.439
  311      310.405      782.424
  312       310.87      782.504
  313      311.335      782.651
  314        311.8       782.88
  315      312.266      783.141
  316      312.731      783.318
  317      313.196      783.418
  318       313.66      783.591
  319      314.125      783.824
  320       314.59       783.97
  321      315.055      783.965
  322      315.519      783.805
  323      315.984      783.697
  324      316.448      783.735
  325      316.913      783.906
  326      317.377      784.139
  327      317.841      784.412
  328      318.305      784.649
  329      318.769      784.827
  330      319.233       784.94
  331      319.697       784.99
  332      320.161      785.286
  333      320.625      785.806
  334      321.089      786.143
  335      321.552      786.339
  336      322.016       786.47
  337      322.479      786.452
  338      322.943      786.392
  339      323.406      786.423
  340      323.869      786.415
  341      324.333      786.422
  342      324.796      786.464
  343      325.259      786.477
  344      325.722       786.35
  345      326.185      786.152
  346      326.647      786.082
  347       327.11      786.092
  348      327.573      786.152
  349      328.035      786.282
  350      328.498       786.42
  351       328.96      786.497
  352      329.423      786.525
  353      329.885      786.483
  354      330.347      786.421
  355       330.81      786.411
  356      331.272      786.451
  357      331.734      786.711
  358      332.196      787.129
  359      332.657      787.443
  360      333.119      787.684
  361      333.581      787.884
  362      334.043      788.065
  363      334.504      788.211
  364      334.966      788.248
  365      335.427      788.193
  366      335.888       788.15
  367       336.35      788.133
  368      336.811      788.187
  369      337.272      788.191
  370      337.733      788.126
  371      338.194      788.132
  372      338.655      788.162
  373      339.115      788.155
  374      339.576      788.131
  375      340.037      788.142
  376      340.497      788.186
  377      340.958      788.266
  378      341.418      788.321
  379      341.879      788.354
  380      342.339      788.398
  381      342.799      788.464
  382      343.259      788.606
  383      343.719      788.734
  384      344.179      788.673
  385      344.639      788.536
  386      345.099      788.537
  387      345.559      788.646
  388      346.018      788.511
  389      346.478      788.328
  390      346.937      788.356
  391      347.397      788.372
  392      347.856       788.42
  393      348.315      788.426
  394      348.774      788.443
  395      349.234      788.454
  396      349.693      788.476
  397      350.152      788.653
  398       350.61      788.788
  399      351.069      788.767
  400      351.528      788.796
  401      351.987      788.833
  402      352.445      788.822
  403      352.904      788.806
  404      353.362      788.824
  405       353.82      788.824
  406      354.279       788.77
  407      354.737      788.723
  408      355.195      788.758
  409      355.653      788.819
  410      356.111      788.901
  411      356.569      789.015
  412      357.027      789.103
  413      357.484      789.145
  414      357.942      789.167
  415      358.399      789.062
  416      358.857      788.878
  417      359.314      788.779
  418      359.772      788.763
  419      360.229      788.664
  420      360.686      788.483
  421      361.143      788.477
  422        361.6      788.615
  423      362.057      788.806
  424      362.514      788.989
  425      362.971      789.054
  426      363.427      788.947
  427      363.884      788.767
  428       364.34       788.58
  429      364.797       788.46
  430      365.253      788.401
  431      365.709       788.36
  432      366.166      788.347
  433      366.622      788.109
  434      367.078      787.734
  435      367.534       787.57
  436       367.99      787.457
  437      368.445      787.381
  438      368.901      787.385
  439      369.357      787.403
  440      369.812      787.402
  441      370.268      787.442
  442      370.723      787.543
  443      371.179      787.704
  444      371.634      787.867
  445      372.089      787.984
  446      372.544      788.084
  447      372.999      788.173
  448      373.454      788.228
  449      373.909      788.233
  450      374.364      788.176
  451      374.818       788.05
  452      375.273      787.999
  453      375.727      788.051
  454      376.182      788.119
  455      376.636      788.189
  456       377.09      788.301
  457      377.545      788.424
  458      377.999      788.368
  459      378.453      788.191
  460      378.907      788.113
  461      379.361      788.118
  462      379.814      788.136
  463      380.268      788.164
  464      380.722      788.263
  465      381.175       788.39
  466      381.629      788.497
  467      382.082      788.618
  468      382.535      788.747
  469      382.989      788.819
  470      383.442      788.897
  471      383.895      789.003
  472      384.348      789.119
  473      384.801      789.247
  474      385.253      789.364
  475      385.706      789.446
  476      386.159      789.537
  477      386.611      789.644
  478      387.064      789.843
  479      387.516      790.164
  480      387.968      790.426
  481      388.421       790.61
  482      388.873      790.702
  483      389.325      790.786
  484      389.777      790.959
  485      390.229      791.173
  486      390.681      791.672
  487      391.132       792.26
  488      391.584      792.591
  489      392.035      792.832
  490      392.487      792.926
  491      392.938      792.969
  492       393.39      793.091
  493      393.841      793.233
  494      394.292      793.501
  495      394.743      793.847
  496      395.194      794.124
  497      395.645      794.311
  498      396.096      794.351
  499      396.546      794.393
  500      396.997       794.53
  501      397.448      794.713
  502      397.898      794.941
  503      398.349      795.177
  504      398.799      795.437
  505      399.249      795.776
  506      399.699      796.163
  507      400.149      796.491
  508      400.599      796.798
  509      401.049      797.041
  510      401.499      797.321
  511      401.949       797.59
  512      402.398      797.782
  513      402.848      797.956
  514      403.297       798.07
  515      403.747      798.172
  516      404.196       798.31
  517      404.645      798.448
  518      405.094      798.584
  519      405.543      798.725
  520      405.992      798.935
  521      406.441      799.182
  522       406.89        799.3
  523      407.339      799.461
  524      407.787       799.72
  525      408.236      799.886
  526      408.684      800.198
  527      409.132      800.665
  528      409.581      801.006
  529      410.029      801.248
  530      410.477      801.419
  531      410.925      801.554
  532      411.373      801.702
  533      411.821      801.938
  534      412.269      802.225
  535      412.716      802.404
  536      413.164      802.524
  537      413.611      802.711
  538      414.059      802.919
  539      414.506      803.116
  540      414.953      803.325
  541        415.4      803.513
  542      415.847      803.666
  543      416.294      803.789
  544      416.741       803.88
  545      417.188      803.959
  546      417.635      804.052
  547      418.081      804.161
  548      418.528      804.292
  549      418.974      804.457
  550      419.421      804.636
  551      419.867      804.835
  552      420.313      805.117
  553      420.759      805.428
  554      421.205      805.739
  555      421.651      806.073
  556      422.097       806.38
  557      422.543      806.621
  558      422.989      806.844
  559      423.434      807.049
  560       423.88      807.198
  561      424.325      807.347
  562       424.77      807.507
  563      425.216      807.719
  564      425.661      807.975
  565      426.106      808.225
  566      426.551      808.524
  567      426.996      808.894
  568       427.44      809.292
  569      427.885      809.671
  570       428.33      810.119
  571      428.774      810.595
  572      429.219      811.026
  573      429.663      811.457
  574      430.107      811.891
  575      430.551      812.333
  576      430.996      812.803
  577       431.44      813.255
  578      431.883      813.709
  579      432.327      814.102
  580      432.771      814.429
  581      433.215      814.795
  582      433.658      815.186
  583      434.102      815.671
  584      434.545      816.141
  585      434.988       816.61
  586      435.431      817.103
  587      435.875      817.298
  588      436.318      817.424
  589      436.761      817.812
  590      437.203      818.408
  591      437.646      819.168
  592      438.089      819.986
  593      438.531      820.853
  594      438.974      821.817
  595      439.416      822.859
  596      439.859      823.989
  597      440.301      825.268
  598      440.743      826.653
  599      441.185      828.142
  600      441.627      829.697
  601      442.069      831.322
  602       442.51      833.041
  603      442.952      834.833
  604      443.394       836.75
  605      443.835      838.767
  606      444.277      840.856
  607      444.718      843.072
  608      445.159      845.495
  609        445.6      848.154
  610      446.041      851.074
  611      446.482       854.12
  612      446.923      857.373
  613      447.364      860.862
  614      447.804      864.521
  615      448.245      868.477
  616      448.685      872.766
  617      449.126      877.357
  618      449.566      882.281
  619      450.006       887.47
  620      450.447      892.885
  621      450.887       898.55
  622      451.326      904.639
  623      451.766      911.142
  624      452.206      917.812
  625      452.646      924.839
  626      453.085      932.449
  627      453.525      940.396
  628      453.964      948.769
  629      454.403      957.899
  630      454.843      967.733
  631      455.282      978.233
  632      455.721       989.48
  633       456.16      1001.44
  634      456.599      1014.01
  635      457.037      1027.34
  636      457.476      1041.76
  637      457.915      1057.26
  638      458.353      1073.64
  639      458.791      1090.94
  640       459.23      1109.25
  641      459.668      1128.67
  642      460.106      1149.31
  643      460.544      1171.25
  644      460.982       1194.6
  645       461.42      1219.39
  646      461.857      1245.87
  647      462.295      1274.27
  648      462.733      1304.51
  649       463.17      1336.49
  650      463.607      1370.35
  651      464.045       1406.2
  652      464.482      1444.16
  653      464.919      1484.56
  654      465.356      1527.49
  655      465.793      1572.78
  656       466.23       1620.5
  657      466.666      1671.29
  658      467.103      1725.61
  659      467.539      1783.45
  660      467.976      1844.32
  661      468.412      1908.45
  662      468.848      1976.31
  663      469.284       2048.2
  664       469.72      2124.05
  665      470.156      2203.48
  666      470.592      2286.67
  667      471.028      2373.91
  668      471.464      2465.94
  669      471.899      2562.78
  670      472.335      2664.27
  671       472.77      2770.03
  672      473.205      2880.01
  673      473.641      2995.02
  674      474.076      3115.29
  675      474.511      3241.02
  676      474.946      3372.09
  677       475.38      3507.78
  678      475.815      3648.07
  679       476.25      3793.17
  680      476.684      3942.98
  681      477.119      4096.07
  682      477.553      4249.86
  683      477.987      4403.66
  684      478.421      4557.46
  685      478.856      4711.25
  686      479.289      4864.98
  687      479.723      5018.66
  688      480.157      5172.33
  689      480.591      5325.95
  690      481.024      5479.54
  691      481.458      5633.06
  692      481.891      5786.49
  693      482.324      5939.87
  694      482.758      6093.23
  695      483.191      6246.52
  696      483.624      6399.64
  697      484.057      6552.62
  698      484.489      6705.54
  699      484.922      6858.45
  700      485.355      7011.26
  701      485.787      7163.94
  702       486.22      7316.53
  703      486.652      7469.03
  704      487.084      7621.44
  705      487.516      7773.77
  706      487.948      7925.99
  707       488.38      8078.05
  708      488.812      8229.93
  709      489.244      8381.68
  710      489.676      8533.22
  711      490.107      8684.54
  712      490.539       8835.7
  713       490.97      8986.64
  714      491.401      9137.39
  715      491.832      9287.55
  716      492.263       9434.2
  717      492.694      9576.95
  718      493.125      9715.87
  719      493.556      9850.53
  720      493.987      9981.43
  721      494.417      10108.9
  722      494.848      10232.6
  723      495.278      10352.1
  724      495.708      10467.2
  725      496.139      10578.2
  726      496.569      10685.3
  727      496.999      10788.6
  728      497.429      10888.3
  729      497.858      10984.5
  730      498.288      11077.2
  731      498.718      11166.5
  732      499.147      11252.4
  733      499.577      11334.6
  734      500.006      11413.8
  735      500.435      11489.5
  736      500.864      11561.4
  737      501.293        11630
  738      501.722      11695.3
  739      502.151      11757.2
  740       502.58      11816.1
  741      503.008      11871.7
  742      503.437      11923.9
  743      503.865      11972.8
  744      504.293      12018.4
  745      504.722      12060.6
  746       505.15      12099.4
  747      505.578      12134.7
  748      506.006      12166.5
  749      506.434      12194.8
  750      506.861      12219.4
  751      507.289      12239.9
  752      507.716      12256.5
  753      508.144        12269
  754      508.571      12277.4
  755      508.998      12281.7
  756      509.425      12282.1
  757      509.852      12278.8
  758      510.279      12271.2
  759      510.706      12258.7
  760      511.133      12241.4
  761       511.56      12219.8
  762      511.986      12193.4
  763      512.412      12161.8
  764      512.839      12124.7
  765      513.265      12082.4
  766      513.691      12035.4
  767      514.117      11983.6
  768      514.543      11926.7
  769      514.969        11864
  770      515.395      11795.4
  771       515.82        11721
  772      516.246      11641.1
  773      516.671      11555.9
  774      517.096      11464.7
  775      517.522      11367.4
  776      517.947        11264
  777      518.372      11154.4
  778      518.797      11039.1
  779      519.222      10918.3
  780      519.646      10791.8
  781      520.071      10659.8
  782      520.495        10524
  783       520.92      10386.9
  784      521.344      10249.3
  785      521.768      10110.9
  786      522.192      9972.07
  787      522.616      9832.68
  788       523.04      9692.72
  789      523.464      9552.09
  790      523.888      9410.88
  791      524.311      9269.23
  792      524.735       9127.2
  793      525.158      8984.72
  794      525.581      8841.84
  795      526.005      8698.58
  796      526.428      8555.08
  797      526.851      8411.33
  798      527.274      8267.18
  799      527.696      8122.57
  800      528.119      7977.61
  801      528.542       7832.4
  802      528.964      7686.93
  803      529.386      7541.12
  804      529.809      7395.04
  805      530.231      7248.65
  806      530.653      7102.02
  807      531.075      6955.13
  808      531.497      6808.07
  809      531.918      6660.87
  810       532.34      6513.43
  811      532.761      6365.83
  812      533.183      6218.12
  813      533.604      6070.26
  814      534.025      5922.26
  815      534.447      5774.07
  816      534.868      5625.99
  817      535.289      5480.82
  818      535.709      5339.01
  819       536.13      5200.66
  820      536.551       5066.1
  821      536.971      4934.86
  822      537.392      4806.61
  823      537.812      4681.71
  824      538.232      4560.49
  825      538.652      4443.13
  826      539.072      4329.42
  827      539.492      4219.08
  828      539.912      4111.86
  829      540.331      4007.81
  830      540.751      3906.57
  831       541.17      3808.07
  832       541.59      3712.19
  833      542.009      3619.11
  834      542.428      3528.76
  835      542.847      3440.64
  836      543.266      3355.23
  837      543.685      3272.72
  838      544.104      3192.46
  839      544.522      3114.31
  840      544.941      3038.41
  841      545.359      2964.62
  842      545.778      2892.87
  843      546.196      2823.37
  844      546.614      2755.96
  845      547.032      2690.44
  846       547.45      2626.95
  847      547.867      2565.25
  848      548.285      2505.29
  849      548.703      2446.89
  850       549.12      2389.98
  851      549.538      2335.03
  852      549.955      2282.11
  853      550.372      2231.09
  854      550.789      2181.99
  855      551.206      2134.53
  856      551.623      2088.42
  857      552.039       2043.8
  858      552.456      2000.62
  859      552.873      1958.73
  860      553.289      1918.04
  861      553.705       1878.6
  862      554.121      1840.35
  863      554.537      1803.47
  864      554.953      1768.14
  865      555.369      1734.17
  866      555.785      1701.41
  867      556.201      1669.77
  868      556.616      1639.25
  869      557.032      1609.74
  870      557.447      1580.95
  871      557.862      1553.19
  872      558.277      1526.66
  873      558.692      1501.15
  874      559.107      1476.79
  875      559.522      1453.39
  876      559.937       1430.8
  877      560.351      1408.93
  878      560.766      1387.82
  879       561.18      1367.67
  880      561.595      1348.44
  881      562.009      1330.03
  882      562.423      1312.27
  883      562.837      1295.08
  884       563.25      1278.35
  885      563.664      1262.18
  886      564.078       1246.6
  887      564.491      1231.55
  888      564.905      1216.95
  889      565.318       1202.9
  890      565.731       1189.5
  891      566.144      1176.73
  892      566.557       1164.4
  893       566.97      1152.41
  894      567.383      1140.83
  895      567.795      1129.63
  896      568.208      1118.78
  897       568.62      1108.21
  898      569.033       1097.9
  899      569.445      1087.94
  900      569.857      1078.36
  901      570.269      1069.09
  902      570.681       1060.1
  903      571.093      1051.48
  904      571.504      1043.46
  905      571.916      1035.81
  906      572.327      1028.24
  907      572.739       1020.8
  908       573.15      1013.56
  909      573.561      1006.45
  910      573.972      999.547
  911      574.383      992.867
  912      574.794      986.304
  913      575.204      979.812
  914      575.615      973.461
  915      576.025      967.227
  916      576.436      961.151
  917      576.846      955.377
  918      577.256        949.9
  919      577.666      944.836
  920      578.076      939.956
  921      578.486      935.098
  922      578.896      930.343
  923      579.305      925.679
  924      579.715      921.159
  925      580.124      916.748
  926      580.533      912.405
  927      580.942      908.184
  928      581.351      904.104
  929       581.76      900.161
  930      582.169      896.356
  931      582.578      892.666
  932      582.986      889.069
  933      583.395      885.559
  934      583.803      882.165
  935      584.212      878.938
  936       584.62      875.878
  937      585.028      872.839
  938      585.436      869.791
  939      585.843      866.988
  940      586.251      864.462
  941      586.659      861.968
  942      587.066      859.537
  943      587.474      857.217
  944      587.881      854.946
  945      588.288      852.676
  946      588.695      850.422
  947      589.102      848.311
  948      589.509      846.409
  949      589.915      844.554
  950      590.322      842.841
  951      590.728       841.26
  952      591.135      839.655
  953      591.541      838.049
  954      591.947      836.505
  955      592.353      835.012
  956      592.759      833.504
  957      593.165      832.053
  958      593.571      830.661
  959      593.976      829.117
  960      594.382      827.485
  961      594.787      825.971
  962      595.192      824.977
  963      595.597      824.362
  964      596.002      823.529
  965      596.407      822.623
  966      596.812      821.711
  967      597.217      820.761
  968      597.621      819.686
  969      598.026       818.46
  970       598.43      817.271
  971      598.834      816.209
  972      599.238      815.225
  973      599.642      814.328
  974      600.046      813.619
  975       600.45      812.912
  976      600.854      812.084
  977      601.257      811.181
  978      601.661      810.278
  979      602.064      809.447
  980      602.467      808.628
  981       602.87      807.779
  982      603.273      807.056
  983      603.676      806.459
  984      604.079      805.768
  985      604.481      805.048
  986      604.884      804.381
  987      605.286      803.746
  988      605.689      803.141
  989      606.091      802.594
  990      606.493      802.321
  991      606.895      802.195
  992      607.297      801.881
  993      607.698      801.494
  994        608.1      801.101
  995      608.501      800.739
  996      608.903      800.429
  997      609.304      800.092
  998      609.705      799.682
  999      610.106      799.246
 1000      610.507      798.834
 1001      610.908      798.481
 1002      611.308      798.234
 1003      611.709       797.95
 1004      612.109      797.502
 1005       612.51      796.777
 1006       612.91      795.962
 1007       613.31      795.368
 1008       613.71      794.915
 1009       614.11      794.527
 1010       614.51      794.159
 1011      614.909      793.747
 1012      615.309      793.324
 1013      615.708      793.052
 1014      616.108      792.887
 1015      616.507      792.651
 1016      616.906      792.418
 1017      617.305       792.23
 1018      617.704       792.02
 1019      618.102      791.786
 1020      618.501       791.33
 1021      618.899      790.776
 1022      619.298      790.361
 1023      619.696      790.032
 1024      620.094      789.822
 1025      620.492      789.657
 1026       620.89      789.457
 1027      621.288      789.247
 1028      621.686      789.045
 1029      622.083      788.862
 1030       622.48      788.665
 1031      622.878      788.459
 1032      623.275      788.294
 1033      623.672      788.205
 1034      624.069      788.162
 1035      624.466      788.098
 1036      624.863      787.959
 1037      625.259      787.764
 1038      625.656      787.569
 1039      626.052      787.399
 1040      626.448      787.097
 1041      626.844      786.697
 1042      627.241      786.429
 1043      627.636      786.214
 1044      628.032      785.982
 1045      628.428      785.751
 1046      628.823       785.68
 1047      629.219       785.71
 1048      629.614      785.545
 1049      630.009      785.236
 1050      630.404      784.973
 1051      630.799      784.599
 1052      631.194      784.458
 1053      631.589      784.625
 1054      631.984      784.652
 1055      632.378       784.57
 1056      632.772      784.475
 1057      633.167      784.451
 1058      633.561      784.361
 1059      633.955      784.216
 1060      634.349      784.094
 1061      634.743      783.993
 1062      635.136        783.9
 1063       635.53       783.39
 1064      635.923      782.986
 1065      636.316      783.161
 1066       636.71      783.177
 1067      637.103      783.094
 1068      637.496      782.982
 1069      637.888       782.91
 1070      638.281      782.878
 1071      638.674      782.845
 1072      639.066      782.784
 1073      639.459      782.655
 1074      639.851      782.428
 1075      640.243      782.024
 1076      640.635      781.585
 1077      641.027      781.273
 1078      641.419      781.075
 1079       641.81      780.893
 1080      642.202      780.712
 1081      642.593      780.568
 1082      642.984      780.536
 1083      643.375      780.451
 1084      643.766      780.247
 1085      644.157      780.092
 1086      644.548      779.969
 1087      644.939      779.871
 1088      645.329       779.79
 1089       645.72      779.747
 1090       646.11      779.711
 1091        646.5      779.412
 1092       646.89      778.969
 1093       647.28      778.709
 1094       647.67      778.513
 1095       648.06      778.347
 1096      648.449      778.171
 1097      648.839      777.987
 1098      649.228       777.83
 1099      649.617       777.69
 1100      650.007      777.561
 1101      650.396       777.48
 1102      650.784      777.417
 1103      651.173      777.279
 1104      651.562       777.18
 1105       651.95      777.213
 1106      652.339      777.282
 1107      652.727      777.319
 1108      653.115      777.291
 1109      653.503      777.221
 1110      653.891      777.117
 1111      654.279      777.017
 1112      654.666      776.937
 1113      655.054      776.987
 1114      655.441      777.042
 1115      655.828      776.927
 1116      656.216      776.827
 1117      656.603      776.726
 1118      656.989      776.604
 1119      657.376      776.506
 1120      657.763      776.403
 1121      658.149      776.313
 1122      658.536      776.263
 1123      658.922      776.201
 1124      659.308      776.136
 1125      659.694      776.051
 1126       660.08      775.906
 1127      660.466      775.788
 1128      660.852      775.729
 1129      661.237      775.698
 1130      661.623      775.771
 1131      662.008      775.886
 1132      662.393      775.898
 1133      662.778      775.842
 1134      663.163      775.746
 1135      663.548      775.618
 1136      663.933      775.475
 1137      664.317       775.47
 1138      664.702      775.599
 1139      665.086      775.687
 1140       665.47      775.865
 1141      665.854      776.113
 1142      666.238      776.223
 1143      666.622      776.227
 1144      667.006       776.25
 1145      667.389      776.317
 1146      667.773      776.403
 1147      668.156      776.358
 1148      668.539      776.164
 1149      668.923      776.025
 1150      669.305      776.009
 1151      669.688      776.075
 1152      670.071      776.118
 1153      670.454      775.837
 1154      670.836      775.338
 1155      671.218      775.029
 1156      671.601      774.815
 1157      671.983      774.599
 1158      672.365      774.855
 1159      672.747      775.542
 1160      673.128       775.95
 1161       673.51      776.194
 1162      673.891      776.325
 1163      674.273      776.417
 1164      674.654      776.591
 1165      675.035       776.35
 1166      675.416      775.719
 1167      675.797      775.337
 1168      676.177       775.19
 1169      676.558       775.22
 1170      676.938      775.201
 1171      677.319      775.169
 1172      677.699      775.162
 1173      678.079      775.152
 1174      678.459      775.134
 1175      678.839      775.109
 1176      679.219      775.097
 1177      679.598      775.086
 1178      679.978      775.039
 1179      680.357      774.945
 1180      680.736      774.994
 1181      681.115      775.355
 1182      681.494      775.769
 1183      681.873      775.901
 1184      682.252      775.883
 1185       682.63      775.865
 1186      683.009      775.842
 1187      683.387       775.82
 1188      683.765      775.802
 1189      684.143      775.785
 1190      684.521      775.761
 1191      684.899      775.712
 1192      685.277      775.674
 1193      685.654      775.612
 1194      686.032      775.491
 1195      686.409      775.448
 1196      686.786      775.468
 1197      687.163      775.436
 1198       687.54      775.349
 1199      687.917      775.251
 1200      688.294      775.183
 1201       688.67      775.117
 1202      689.046      775.022
 1203      689.423      774.988
 1204      689.799      775.039
 1205      690.175      775.019
 1206      690.551      774.895
 1207      690.927      774.718
 1208      691.302      774.559
 1209      691.678      774.465
 1210      692.053      774.394
 1211      692.428       774.36
 1212      692.804      774.386
 1213      693.179      774.437
 1214      693.553      774.336
 1215      693.928      774.119
 1216      694.303      773.992
 1217      694.677      773.878
 1218      695.052      773.765
 1219      695.426      773.776
 1220        695.8      773.856
 1221      696.174       773.85
 1222      696.548      773.842
 1223      696.921      773.837
 1224      697.295      773.892
 1225      697.669      774.003
 1226      698.042      774.019
 1227      698.415      774.086
 1228      698.788      774.264
 1229      699.161      774.413
 1230      699.534      774.438
 1231      699.907      774.268
 1232      700.279      774.054
 1233      700.652      773.937
 1234      701.024      773.833
 1235      701.396      773.729
 1236      701.768      773.646
 1237       702.14      773.578
 1238      702.512      773.409
 1239      702.883      773.173
 1240      703.255      773.066
 1241      703.626      772.829
 1242      703.998      772.464
 1243      704.369      772.272
 1244       704.74      772.239
 1245      705.111      772.341
 1246      705.481      772.461
 1247      705.852      772.456
 1248      706.222      772.404
 1249      706.593      772.378
 1250      706.963      772.339
 1251      707.333      772.217
 1252      707.703      772.035
 1253      708.073      771.904
 1254      708.442      772.708
 1255      708.812      774.152
 1256      709.181      774.986
 1257      709.551       775.47
 1258       709.92       775.75
 1259      710.289      775.417
 1260      710.658       774.64
 1261      711.027      774.166
 1262      711.395      773.939
 1263      711.764      773.888
 1264      712.132      773.864
 1265        712.5      773.712
 1266      712.869      773.511
 1267      713.236       773.35
 1268      713.604      773.215
 1269      713.972      773.032
 1270       714.34       772.82
 1271      714.707      772.642
 1272      715.074      772.454
 1273      715.442      772.288
 1274      715.809      772.153
 1275      716.176      772.111
 1276      716.542      772.128
 1277      716.909      772.113
 1278      717.276      772.106
 1279      717.642      772.108
 1280      718.008      772.098
 1281      718.374      771.953
 1282       718.74      771.568
 1283      719.106      771.186
 1284      719.472      771.007
 1285      719.838      770.901
 1286      720.203       770.85
 1287      720.568      770.845
 1288      720.934      770.838
 1289      721.299      770.833
 1290      721.664      770.809
 1291      722.029      770.744
 1292      722.393      770.698
 1293      722.758      770.743
 1294      723.122      770.862
 1295      723.486      770.982
 1296      723.851      771.063
 1297      724.215      771.095
 1298      724.578      771.175
 1299      724.942      771.292
 1300      725.306      771.391
 1301      725.669      771.444
 1302      726.033      771.486
 1303      726.396      771.551
 1304      726.759      771.539
 1305      727.122      771.466
 1306      727.485      771.405
 1307      727.847      771.353
 1308       728.21      771.373
 1309      728.572      771.415
 1310      728.935      771.405
 1311      729.297      771.376
 1312      729.659      771.332
 1313      730.021      771.223
 1314      730.382      771.059
 1315      730.744      770.936
 1316      731.105      770.868
 1317      731.467      770.844
 1318      731.828       771.18
 1319      732.189       771.72
 1320       732.55      771.921
 1321      732.911      771.972
 1322      733.271      772.056
 1323      733.632      772.147
 1324      733.992      772.236
 1325      734.352      772.241
 1326      734.713      772.114
 1327      735.072       772.05
 1328      735.432      771.932
 1329      735.792      771.688
 1330      736.152      771.485
 1331      736.511      771.383
 1332       736.87       771.33
 1333      737.229      771.268
 1334      737.589      771.201
 1335      737.947      771.153
 1336      738.306      771.127
 1337      738.665      771.181
 1338      739.023      771.326
 1339      739.382      771.459
 1340       739.74      771.569
 1341      740.098      771.645
 1342      740.456      771.691
 1343      740.814      771.731
 1344      741.171      771.699
 1345      741.529      771.549
 1346      741.886      771.324
 1347      742.244      771.252
 1348      742.601      771.324
 1349      742.958      771.353
 1350      743.314      771.384
 1351      743.671        771.4
 1352      744.028      771.417
 1353      744.384      771.417
 1354       744.74      771.377
 1355      745.097      770.437
 1356      745.453      768.924
 1357      745.809      768.043
 1358      746.164      767.503
 1359       746.52      767.167
 1360      746.875      766.966
 1361      747.231      766.852
 1362      747.586      766.778
 1363      747.941      766.672
 1364      748.296      766.487
 1365      748.651      766.273
 1366      749.005      766.083
 1367       749.36      765.968
 1368      749.714      765.931
 1369      750.069      765.882
 1370      750.423      765.792
 1371      750.777       765.68
 1372       751.13      765.614
 1373      751.484       765.59
 1374      751.838      765.594
 1375      752.191      765.633
 1376      752.544      765.607
 1377      752.897      765.533
 1378       753.25      765.531
 1379      753.603      765.516
 1380      753.956      765.505
 1381      754.309      765.526
 1382      754.661      765.504
 1383      755.013      765.398
 1384      755.365      765.236
 1385      755.717      765.079
 1386      756.069      764.965
 1387      756.421      764.946
 1388      756.773      765.055
 1389      757.124      765.171
 1390      757.476      765.256
 1391      757.827      765.358
 1392      758.178      765.447
 1393      758.529      765.481
 1394      758.879       765.45
 1395       759.23      765.359
 1396      759.581      765.389
 1397      759.931       765.48
 1398      760.281      765.534
 1399      760.631      765.568
 1400      760.981      765.755
 1401      761.331      766.115
 1402      761.681       766.31
 1403       762.03      766.376
 1404      762.379      766.386
 1405      762.729      766.399
 1406      763.078      766.396
 1407      763.427      766.404
 1408      763.776      766.456
 1409      764.124      766.445
 1410      764.473      766.387
 1411      764.821      766.383
 1412      765.169      766.386
 1413      765.517      766.374
 1414      765.865       766.38
 1415      766.213      766.509
 1416      766.561      766.701
 1417      766.909      766.756
 1418      767.256      766.697
 1419      767.603      766.322
 1420       767.95       765.75
 1421      768.297      765.394
 1422      768.644      765.193
 1423      768.991      765.097
 1424      769.337      764.998
 1425      769.684      764.836
 1426       770.03      764.677
 1427      770.376      764.594
 1428      770.722      764.525
 1429      771.068      764.502
 1430      771.414      764.568
 1431      771.759      764.634
 1432      772.105      764.726
 1433       772.45      765.012
 1434      772.795       765.34
 1435       773.14      765.528
 1436      773.485      765.654
 1437       773.83      765.805
 1438      774.174      765.839
 1439      774.519      765.786
 1440      774.863      765.776
 1441      775.207      765.727
 1442      775.551       765.61
 1443      775.895       765.51
 1444      776.239       765.44
 1445      776.582      765.401
 1446      776.926      765.418
 1447      777.269      765.361
 1448      777.612      765.145
 1449      777.955      764.979
 1450      778.298      764.872
 1451      778.641      764.799
 1452      778.983       764.84
 1453      779.326      764.872
 1454      779.668      764.922
 1455       780.01      765.001
 1456      780.352      765.032
 1457      780.694      765.015
 1458      781.036      764.965
 1459      781.377      764.918
 1460      781.719      764.885
 1461       782.06      764.828
 1462      782.401      764.861
 1463      782.742      764.943
 1464      783.083      764.931
 1465      783.424       764.96
 1466      783.764      765.072
 1467      784.105      765.177
 1468      784.445      765.216
 1469      784.785      765.269
 1470      785.125      765.395
 1471      785.465      765.495
 1472      785.805      765.591
 1473      786.144      765.676
 1474      786.484      765.693
 1475      786.823      765.633
 1476      787.162      765.552
 1477      787.501      765.539
 1478       787.84      765.579
 1479      788.178      765.638
 1480      788.517      765.823
 1481      788.855      766.038
 1482      789.194      766.133
 1483      789.532      766.206
 1484       789.87      766.271
 1485      790.208      766.479
 1486      790.545      766.775
 1487      790.883      766.935
 1488       791.22      766.923
 1489      791.557       766.72
 1490      791.894      766.592
 1491      792.231      766.555
 1492      792.568       766.47
 1493      792.905      766.526
 1494      793.241       766.68
 1495      793.578      766.717
 1496      793.914       766.67
 1497       794.25      766.479
 1498      794.586      766.192
 1499      794.922      765.969
 1500      795.257        765.8
 1501      795.593      765.457
 1502      795.928      764.954
 1503      796.263       764.66
 1504      796.598      764.556
 1505      796.933      764.517
 1506      797.268      764.453
 1507      797.603      764.371
 1508      797.937      764.252
 1509      798.271      764.116
 1510      798.606      764.175
 1511       798.94      764.401
 1512      799.274      764.573
 1513      799.607      764.783
 1514      799.941      765.042
 1515      800.274      765.224
 1516      800.608      765.212
 1517      800.941      765.133
 1518      801.274       765.14
 1519      801.607      765.187
 1520      801.939      765.205
 1521      802.272      765.169
 1522      802.604      765.139
 1523      802.936       765.06
 1524      803.269      764.928
 1525      803.601      764.847
 1526      803.932      764.845
 1527      804.264       764.87
 1528      804.596      764.917
 1529      804.927      765.037
 1530      805.258      765.148
 1531      805.589      765.227
 1532       805.92      765.355
 1533      806.251      765.357
 1534      806.582      765.175
 1535      806.912      764.981
 1536      807.242      764.866
 1537      807.573      764.941
 1538      807.903      765.068
 1539      808.232      765.087
 1540      808.562      765.023
 1541      808.892      764.882
 1542      809.221      764.838
 1543      809.551      764.919
 1544       809.88      764.978
 1545      810.209      765.014
 1546      810.538      765.148
 1547      810.866      765.273
 1548      811.195      765.356
 1549      811.523      765.377
 1550      811.851       765.38
 1551       812.18      765.618
 1552      812.507      765.948
 1553      812.835      766.141
 1554      813.163       766.23
 1555       813.49      766.216
 1556      813.818      766.127
 1557      814.145       766.09
 1558      814.472      766.098
 1559      814.799      766.129
 1560      815.126      766.179
 1561      815.452      766.206
 1562      815.779       766.25
 1563      816.105       766.22
 1564      816.431      766.121
 1565      816.757       766.11
 1566      817.083      766.156
 1567      817.409      766.181
 1568      817.734      766.136
 1569       818.06      766.072
 1570      818.385      765.966
 1571       818.71      765.831
 1572      819.035      765.708
 1573       819.36      765.575
 1574      819.685      765.443
 1575      820.009      765.368
 1576      820.333      765.361
 1577      820.658       765.34
 1578      820.982      765.267
 1579      821.305      766.728
 1580      821.629      769.183
 1581      821.953      770.383
 1582      822.276      770.923
 1583        822.6      771.232
 1584      822.923      771.425
 1585      823.246      771.553
 1586      823.569      771.569
 1587      823.891      771.466
 1588      824.214      771.392
 1589      824.536      771.391
 1590      824.858      771.406
 1591       825.18      771.299
 1592      825.502      771.229
 1593      825.824      771.411
 1594      826.146      771.528
 1595      826.467      771.464
 1596      826.789        771.4
 1597       827.11      771.366
 1598      827.431      771.342
 1599      827.752      771.496
 1600      828.072      771.746
 1601      828.393      771.859
 1602      828.713      771.947
 1603      829.034      772.026
 1604      829.354      772.096
 1605      829.674      772.165
 1606      829.993      772.238
 1607      830.313      772.429
 1608      830.633      772.715
 1609      830.952      772.928
 1610      831.271      773.068
 1611       831.59      772.957
 1612      831.909      772.709
 1613      832.228      772.517
 1614      832.546      772.243
 1615      832.865      771.916
 1616      833.183      771.663
 1617      833.501      771.475
 1618      833.819      771.258
 1619      834.137      771.048
 1620      834.455      770.862
 1621      834.772      770.703
 1622      835.089      770.623
 1623      835.407      770.558
 1624      835.724      770.508
 1625       836.04      770.498
 1626      836.357      770.545
 1627      836.674      770.636
 1628       836.99      770.697
 1629      837.306      770.713
 1630      837.623       770.61
 1631      837.939      770.454
 1632      838.254      770.242
 1633       838.57       769.96
 1634      838.886      769.782
 1635      839.201      769.607
 1636      839.516      769.389
 1637      839.831      769.246
 1638      840.146      768.981
 1639      840.461      768.633
 1640      840.775      768.447
 1641       841.09      768.334
 1642      841.404      768.338
 1643      841.718      768.323
 1644      842.032      768.183
 1645      842.346      768.135
 1646      842.659      768.147
 1647      842.973      768.021
 1648      843.286       767.87
 1649      843.599      767.775
 1650      843.912      767.727
 1651      844.225      767.577
 1652      844.538      767.196
 1653      844.851      766.893
 1654      845.163      766.788
 1655      845.475        766.7
 1656      845.787      766.791
 1657      846.099      767.029
 1658      846.411      767.137
 1659      846.723      767.172
 1660      847.034      767.201
 1661      847.345      767.293
 1662      847.657      767.446
 1663      847.968      767.502
 1664      848.278      767.489
 1665      848.589      767.465
 1666        848.9      767.381
 1667       849.21      767.194
 1668       849.52      766.996
 1669       849.83      766.907
 1670       850.14      767.008
 1671       850.45      767.193
 1672      850.759      767.276
 1673      851.069      767.339
 1674      851.378      767.383
 1675      851.687      767.555
 1676      851.996      767.811
 1677      852.305       767.93
 1678      852.614      767.951
 1679      852.922      767.974
 1680       853.23      766.466
 1681      853.539       763.87
 1682      853.847      762.409
 1683      854.154      761.587
 1684      854.462      761.062
 1685       854.77      760.674
 1686      855.077      760.399
 1687      855.384      760.132
 1688      855.691      759.916
 1689      855.998       759.77
 1690      856.305      759.615
 1691      856.612        759.5
 1692      856.918      759.455
 1693      857.224      759.343
 1694       857.53      759.024
 1695      857.836      758.649
 1696      858.142      758.379
 1697      858.448      758.238
 1698      858.753      758.194
 1699      859.059      758.166
 1700      859.364      757.958
 1701      859.669      757.659
 1702      859.974      757.476
 1703      860.278      757.318
 1704      860.583      757.194
 1705      860.887      757.116
 1706      861.192      756.996
 1707      861.496       756.85
 1708        861.8       756.63
 1709      862.103      756.337
 1710      862.407      756.168
 1711       862.71      756.066
 1712      863.014      756.019
 1713      863.317      755.978
 1714       863.62      755.927
 1715      863.922      755.951
 1716      864.225      756.015
 1717      864.527      756.021
 1718       864.83      756.029
 1719      865.132       756.05
 1720      865.434      756.065
 1721      865.736      756.112
 1722      866.037      756.169
 1723      866.339      756.184
 1724       866.64      756.212
 1725      866.941      756.271
 1726      867.242      756.309
 1727      867.543       756.21
 1728      867.844          756
 1729      868.145      755.801
 1730      868.445      755.753
 1731      868.745      755.841
 1732      869.045      755.873
 1733      869.345      756.007
 1734      869.645      756.224
 1735      869.944      756.323
 1736      870.244      756.369
 1737      870.543      756.434
 1738      870.842      756.483
 1739      871.141      756.517
 1740       871.44      756.537
 1741      871.739      756.558
 1742      872.037      756.643
 1743      872.335      756.698
 1744      872.634      756.863
 1745      872.931      757.197
 1746      873.229       757.32
 1747      873.527      757.264
 1748      873.824      757.401
 1749      874.122      757.671
 1750      874.419      757.799
 1751      874.716      757.975
 1752      875.013      758.217
 1753      875.309      758.348
 1754      875.606      758.356
 1755      875.902      758.508
 1756      876.199      758.824
 1757      876.495      758.912
 1758       876.79      758.851
 1759      877.086      758.793
 1760      877.382      758.739
 1761      877.677      758.704
 1762      877.972      758.599
 1763      878.267      758.428
 1764      878.562      758.428
 1765      878.857      758.558
 1766      879.152       758.64
 1767      879.446      758.747
 1768       879.74      758.858
 1769      880.034      758.895
 1770      880.328      758.888
 1771      880.622      758.745
 1772      880.916      758.499
 1773      881.209      758.317
 1774      881.502      758.185
 1775      881.795       758.15
 1776      882.088      758.012
 1777      882.381      757.767
 1778      882.674       757.63
 1779      882.966      757.602
 1780      883.258      757.596
 1781      883.551      757.526
 1782      883.843      757.505
 1783      884.134      757.517
 1784      884.426      757.497
 1785      884.717      757.473
 1786      885.009      757.452
 1787        885.3      757.454
 1788      885.591      757.447
 1789      885.882      757.399
 1790      886.172      757.381
 1791      886.463      757.428
 1792      886.753      757.522
 1793      887.043      757.658
 1794      887.333      757.781
 1795      887.623      757.809
 1796      887.913        757.8
 1797      888.202      757.793
 1798      888.492      757.852
 1799      888.781      757.981
 1800       889.07      758.084
 1801      889.359      758.141
 1802      889.647      758.172
 1803      889.936      758.188
 1804      890.224      758.211
 1805      890.512      758.286
 1806        890.8      758.368
 1807      891.088      758.422
 1808      891.376      758.538
 1809      891.663      758.706
 1810      891.951      758.833
 1811      892.238      758.885
 1812      892.525      759.101
 1813      892.812      759.441
 1814      893.099      759.608
 1815      893.385      759.676
 1816      893.671      759.665
 1817      893.958      759.654
 1818      894.244      759.718
 1819       894.53      759.948
 1820      894.815      760.271
 1821      895.101      760.455
 1822      895.386      760.536
 1823      895.671      760.572
 1824      895.956      760.599
 1825      896.241      760.595
 1826      896.526      760.586
 1827       896.81      760.561
 1828      897.095      760.521
 1829      897.379      760.491
 1830      897.663      760.472
 1831      897.947      760.354
 1832      898.231      760.175
 1833      898.514      760.087
 1834      898.798      759.885
 1835      899.081      759.588
 1836      899.364      759.425
 1837      899.647      759.309
 1838      899.929      759.183
 1839      900.212      759.064
 1840      900.494      758.946
 1841      900.776      758.838
 1842      901.058      758.736
 1843       901.34      758.664
 1844      901.622      758.609
 1845      901.904      758.507
 1846      902.185      758.342
 1847      902.466      758.203
 1848      902.747      758.129
 1849      903.028      757.885
 1850      903.309       757.52
 1851      903.589      757.313
 1852       903.87      757.087
 1853       904.15      756.826
 1854       904.43      756.682
 1855       904.71      756.487
 1856      904.989      756.033
 1857      905.269      755.554
 1858      905.548      755.267
 1859      905.827      755.041
 1860      906.106      754.935
 1861      906.385      754.858
 1862      906.664      754.763
 1863      906.942      754.696
 1864      907.221      754.661
 1865      907.499       754.54
 1866      907.777      754.341
 1867      908.055      754.213
 1868      908.332      754.085
 1869       908.61      753.981
 1870      908.887      753.913
 1871      909.164      753.861
 1872      909.441      753.838
 1873      909.718      753.858
 1874      909.995      753.924
 1875      910.271      754.019
 1876      910.548       754.05
 1877      910.824       754.03
 1878        911.1       754.06
 1879      911.375      754.114
 1880      911.651      754.117
 1881      911.927      754.062
 1882      912.202      754.024
 1883      912.477      753.987
 1884      912.752      753.926
 1885      913.027      753.909
 1886      913.301      753.967
 1887      913.576       754.03
 1888       913.85      754.079
 1889      914.124      754.172
 1890      914.398      754.266
 1891      914.672      754.315
 1892      914.945      754.326
 1893      915.219      754.306
 1894      915.492      754.222
 1895      915.765      754.127
 1896      916.038      754.108
 1897      916.311      754.262
 1898      916.583      754.508
 1899      916.856       754.55
 1900      917.128      754.432
 1901        917.4      754.334
 1902      917.672      754.278
 1903      917.944      754.298
 1904      918.215      754.507
 1905      918.486      754.728
 1906      918.758      754.776
 1907      919.029       754.71
 1908      919.299      754.621
 1909       919.57      754.482
 1910      919.841      754.309
 1911      920.111      754.253
 1912      920.381      754.277
 1913      920.651      754.072
 1914      920.921      753.715
 1915      921.191      753.498
 1916       921.46      753.394
 1917      921.729      753.364
 1918      921.999      753.307
 1919      922.268      753.251
 1920      922.536      753.084
 1921      922.805      752.811
 1922      923.073      752.659
 1923      923.342      752.607
 1924       923.61      752.599
 1925      923.878      752.596
 1926      924.145      752.594
 1927      924.413      752.531
 1928       924.68      752.473
 1929      924.948      752.537
 1930      925.215      752.681
 1931      925.482      752.789
 1932      925.748      752.822
 1933      926.015      752.807
 1934      926.281      752.793
 1935      926.547      752.799
 1936      926.813      752.818
 1937      927.079      752.858
 1938      927.345      752.946
 1939       927.61      753.062
 1940      927.876      753.158
 1941      928.141       753.22
 1942      928.406      753.251
 1943      928.671      753.236
 1944      928.935      753.221
 1945        929.2      753.334
 1946      929.464      753.371
 1947      929.728       753.24
 1948      929.992      753.185
 1949      930.256       753.18
 1950       930.52      753.218
 1951      930.783      753.285
 1952      931.046      753.329
 1953      931.309      753.319
 1954      931.572      753.351
 1955      931.835      753.419
 1956      932.097      753.476
 1957       932.36      753.516
 1958      932.622      753.499
 1959      932.884       753.42
 1960      933.146      753.353
 1961      933.408      753.292
 1962      933.669      753.224
 1963       933.93      753.147
 1964      934.192      753.043
 1965      934.453      752.984
 1966      934.713      753.037
 1967      934.974      753.124
 1968      935.234      753.151
 1969      935.495      753.137
 1970      935.755      753.099
 1971      936.015       753.09
 1972      936.274      753.083
 1973      936.534      753.064
 1974      936.793      753.036
 1975      937.053      752.977
 1976      937.312      752.873
 1977      937.571      752.768
 1978      937.829      752.694
 1979      938.088      752.632
 1980      938.346      752.613
 1981      938.604      752.635
 1982      938.862      752.663
 1983       939.12       752.71
 1984      939.378      752.778
 1985      939.635      752.828
 1986      939.893      752.847
 1987       940.15      752.847
 1988      940.407      752.851
 1989      940.663      752.821
 1990       940.92      752.733
 1991      941.176      752.691
 1992      941.433      752.717
 1993      941.689      752.731
 1994      941.944      752.727
 1995        942.2      752.721
 1996      942.456      752.682
 1997      942.711      752.643
 1998      942.966       752.52
 1999      943.221      752.329
 2000      943.476      752.254
 2001      943.731      752.229
 2002      943.985      752.231
 2003      944.239      752.247
 2004      944.493       752.18
 2005      944.747      751.926
 2006      945.001      751.674
 2007      945.255       751.56
 2008      945.508      751.516
 2009      945.761       751.52
 2010      946.014      751.517
 2011      946.267       751.47
 2012       946.52      751.348
 2013      946.772      751.211
 2014      947.025      751.151
 2015      947.277      751.145
 2016      947.529      751.178
 2017      947.781        751.2
 2018      948.032      751.207
 2019      948.284      751.235
 2020      948.535       751.22
 2021      948.786       751.15
 2022      949.037       751.12
 2023      949.288       751.12
 2024      949.538      751.095
 2025      949.789      751.074
 2026      950.039      751.091
 2027      950.289      751.122
 2028      950.539      751.177
 2029      950.788      751.225
 2030      951.038      751.157
 2031      951.287      751.007
 2032      951.536      750.934
 2033      951.785      750.961
 2034      952.034      751.032
 2035      952.282      751.096
 2036      952.531      751.153
 2037      952.779       751.22
 2038      953.027      751.235
 2039      953.275      751.175
 2040      953.523      751.105
 2041       953.77      751.075
 2042      954.017      751.113
 2043      954.264      751.199
 2044      954.511       751.32
 2045      954.758      751.325
 2046      955.005      750.997
 2047      955.251      750.591
