scansci Spectrometer Data File
--- Measurement Setting ---
Type: Sample Spectrum
Date: Fri Nov 22 18:00:57 2024
User: (Reserved by scansci)
Serial: (Reserved by scansci)
Channel: No. 11
Integration Time: 500
Average: 30
Boxcar: 50
Electrical Dark: No-corrected
Time Normalize: (Reserved by scansci)
Dual-beam: (Reserved by scansci)
Reference Ch: (Reserved by scansci)
--- Measurement Data ---
Pixel   Wavelength   Intensity
    0        162.5      806.912
    1      162.985      806.522
    2      163.469      806.072
    3      163.954       805.67
    4      164.439      805.298
    5      164.923      804.876
    6      165.408      804.443
    7      165.892      804.014
    8      166.377      803.623
    9      166.861      803.224
   10      167.345      802.816
   11       167.83      802.519
   12      168.314       802.34
   13      168.798      802.237
   14      169.282      802.278
   15      169.766      802.525
   16       170.25      803.037
   17      170.734      803.506
   18      171.218      803.772
   19      171.702      803.923
   20      172.185      803.902
   21      172.669      803.988
   22      173.153      804.174
   23      173.636      804.175
   24       174.12       804.07
   25      174.603      804.154
   26      175.087      804.474
   27       175.57      804.723
   28      176.053      804.805
   29      176.537      804.868
   30       177.02      805.002
   31      177.503      805.073
   32      177.986      805.028
   33      178.469      804.921
   34      178.952      804.835
   35      179.435       804.68
   36      179.918       804.44
   37      180.401      804.148
   38      180.884      803.834
   39      181.366      803.551
   40      181.849      803.336
   41      182.332      803.151
   42      182.814      802.922
   43      183.297      802.694
   44      183.779       802.52
   45      184.262      802.367
   46      184.744      802.213
   47      185.226      802.028
   48      185.708      801.793
   49      186.191      801.578
   50      186.673      801.439
   51      187.155      801.535
   52      187.637      801.646
   53      188.119      801.696
   54        188.6      801.694
   55      189.082       801.38
   56      189.564      800.852
   57      190.046      800.508
   58      190.527      800.314
   59      191.009      800.227
   60      191.491      799.984
   61      191.972      799.751
   62      192.454      799.763
   63      192.935      799.771
   64      193.416      799.804
   65      193.897      799.783
   66      194.379      799.701
   67       194.86      799.611
   68      195.341      799.518
   69      195.822      799.442
   70      196.303      799.444
   71      196.784       799.64
   72      197.265      799.898
   73      197.746      800.065
   74      198.226      800.163
   75      198.707      800.179
   76      199.188      799.641
   77      199.668      798.737
   78      200.149      798.378
   79      200.629      798.519
   80       201.11      798.779
   81       201.59      799.133
   82       202.07      799.521
   83       202.55      799.842
   84      203.031      800.163
   85      203.511      800.157
   86      203.991      799.928
   87      204.471      799.265
   88      204.951        798.3
   89      205.431      797.759
   90       205.91      797.598
   91       206.39      797.629
   92       206.87      797.599
   93      207.349       797.69
   94      207.829      797.847
   95      208.309       797.94
   96      208.788      798.089
   97      209.267       798.19
   98      209.747      798.217
   99      210.226      798.148
  100      210.705      798.003
  101      211.185       797.95
  102      211.664       798.01
  103      212.143      798.178
  104      212.622      798.352
  105      213.101      798.446
  106      213.579       798.53
  107      214.058      798.632
  108      214.537      798.739
  109      215.016      798.905
  110      215.494      799.113
  111      215.973      799.391
  112      216.452      799.709
  113       216.93      799.822
  114      217.408      799.801
  115      217.887      799.729
  116      218.365      799.602
  117      218.843      799.413
  118      219.321      799.208
  119      219.799      799.164
  120      220.278       799.26
  121      220.755      799.345
  122      221.233      799.287
  123      221.711      799.072
  124      222.189      798.925
  125      222.667      798.935
  126      223.144      798.875
  127      223.622      798.558
  128        224.1      798.225
  129      224.577      798.003
  130      225.055      797.808
  131      225.532      797.572
  132      226.009       797.37
  133      226.486      797.203
  134      226.964      797.075
  135      227.441      796.965
  136      227.918      796.989
  137      228.395       797.11
  138      228.872      797.302
  139      229.349      797.543
  140      229.826      797.735
  141      230.302      797.805
  142      230.779      797.858
  143      231.256      797.969
  144      231.732      798.041
  145      232.209      798.126
  146      232.685      798.209
  147      233.162      798.204
  148      233.638      798.214
  149      234.114      798.265
  150       234.59      798.272
  151      235.066      798.225
  152      235.543      798.169
  153      236.019      798.177
  154      236.495      798.209
  155       236.97      798.404
  156      237.446      798.738
  157      237.922      799.029
  158      238.398      799.293
  159      238.873      799.477
  160      239.349      799.737
  161      239.824      799.968
  162        240.3      799.889
  163      240.775      799.707
  164      241.251      799.682
  165      241.726      799.717
  166      242.201      799.874
  167      242.676      800.118
  168      243.151      800.349
  169      243.626       800.52
  170      244.101      800.589
  171      244.576      800.595
  172      245.051      800.352
  173      245.526      799.999
  174          246      799.796
  175      246.475      799.647
  176       246.95      799.572
  177      247.424      799.557
  178      247.899      799.584
  179      248.373      799.436
  180      248.847      798.916
  181      249.321      798.382
  182      249.796      797.877
  183       250.27      797.527
  184      250.744      797.471
  185      251.218      797.388
  186      251.692      797.372
  187      252.166      797.424
  188      252.639      797.382
  189      253.113      797.255
  190      253.587      797.196
  191       254.06      797.063
  192      254.534      796.833
  193      255.007      796.716
  194      255.481      796.543
  195      255.954      796.338
  196      256.427      796.237
  197      256.901      796.067
  198      257.374      795.927
  199      257.847      795.956
  200       258.32      796.044
  201      258.793      796.127
  202      259.266      796.208
  203      259.739      796.234
  204      260.211      796.155
  205      260.684      796.083
  206      261.157      796.133
  207      261.629      796.208
  208      262.102      796.209
  209      262.574      796.171
  210      263.046       796.12
  211      263.519      796.108
  212      263.991      796.004
  213      264.463      795.792
  214      264.935       795.73
  215      265.407      795.726
  216      265.879      795.684
  217      266.351      795.531
  218      266.823      795.231
  219      267.295      794.969
  220      267.766      794.831
  221      268.238      794.775
  222       268.71      794.724
  223      269.181      794.637
  224      269.653      794.618
  225      270.124      794.665
  226      270.595      794.632
  227      271.066      794.503
  228      271.538      794.426
  229      272.009      794.427
  230       272.48      794.519
  231      272.951      794.624
  232      273.422      794.648
  233      273.892      794.648
  234      274.363      794.719
  235      274.834      794.799
  236      275.305      794.955
  237      275.775      795.121
  238      276.246      795.187
  239      276.716      795.221
  240      277.186      795.168
  241      277.657      795.084
  242      278.127      795.093
  243      278.597      795.361
  244      279.067      795.718
  245      279.537      795.908
  246      280.007      795.952
  247      280.477      795.936
  248      280.947      796.017
  249      281.417      796.196
  250      281.886      796.372
  251      282.356      796.529
  252      282.825      796.733
  253      283.295      796.896
  254      283.764      796.903
  255      284.234      796.863
  256      284.703      796.665
  257      285.172      796.344
  258      285.641       796.07
  259       286.11      795.818
  260      286.579      795.638
  261      287.048      795.342
  262      287.517      795.008
  263      287.986      794.933
  264      288.454      795.032
  265      288.923      795.067
  266      289.392      795.002
  267       289.86      794.811
  268      290.329      794.683
  269      290.797        794.7
  270      291.265       794.68
  271      291.734      794.681
  272      292.202      794.763
  273       292.67      794.889
  274      293.138      794.918
  275      293.606      794.906
  276      294.074      794.873
  277      294.541      794.854
  278      295.009      794.927
  279      295.477       795.05
  280      295.944      795.163
  281      296.412       795.26
  282      296.879      795.355
  283      297.347      795.734
  284      297.814      796.135
  285      298.281      796.181
  286      298.749      796.192
  287      299.216      796.611
  288      299.683      797.241
  289       300.15      797.672
  290      300.616      798.006
  291      301.083      798.197
  292       301.55      798.344
  293      302.017      798.448
  294      302.483      798.467
  295       302.95       798.46
  296      303.416      798.416
  297      303.883      798.529
  298      304.349      798.832
  299      304.815       799.03
  300      305.281      799.079
  301      305.748      799.102
  302      306.214      799.135
  303       306.68      799.092
  304      307.146      799.082
  305      307.611      799.185
  306      308.077      799.226
  307      308.543      799.115
  308      309.008      798.956
  309      309.474       798.87
  310      309.939      798.833
  311      310.405      798.806
  312       310.87      798.915
  313      311.335      799.093
  314        311.8       799.37
  315      312.266      799.692
  316      312.731      799.854
  317      313.196      799.907
  318       313.66      800.113
  319      314.125      800.465
  320       314.59      800.713
  321      315.055      800.739
  322      315.519      800.485
  323      315.984      800.293
  324      316.448      800.285
  325      316.913      800.488
  326      317.377      800.812
  327      317.841      801.166
  328      318.305      801.458
  329      318.769      801.638
  330      319.233      801.746
  331      319.697      801.779
  332      320.161      802.237
  333      320.625      803.031
  334      321.089       803.52
  335      321.552      803.789
  336      322.016      803.937
  337      322.479      803.859
  338      322.943      803.686
  339      323.406      803.631
  340      323.869      803.548
  341      324.333      803.515
  342      324.796      803.547
  343      325.259      803.532
  344      325.722      803.282
  345      326.185      802.941
  346      326.647      802.783
  347       327.11      802.745
  348      327.573      802.782
  349      328.035      802.898
  350      328.498      803.025
  351       328.96      803.083
  352      329.423      803.074
  353      329.885      802.917
  354      330.347       802.72
  355       330.81      802.609
  356      331.272      802.553
  357      331.734      802.813
  358      332.196      803.312
  359      332.657      803.679
  360      333.119       803.94
  361      333.581      804.131
  362      334.043       804.29
  363      334.504      804.392
  364      334.966      804.339
  365      335.427      804.171
  366      335.888      804.066
  367       336.35      803.985
  368      336.811      803.981
  369      337.272      803.923
  370      337.733      803.783
  371      338.194      803.761
  372      338.655      803.743
  373      339.115      803.635
  374      339.576        803.5
  375      340.037      803.472
  376      340.497        803.5
  377      340.958      803.555
  378      341.418      803.589
  379      341.879      803.586
  380      342.339      803.557
  381      342.799      803.565
  382      343.259      803.685
  383      343.719      803.762
  384      344.179      803.545
  385      344.639      803.235
  386      345.099      803.177
  387      345.559      803.275
  388      346.018      802.941
  389      346.478      802.526
  390      346.937      802.444
  391      347.397      802.346
  392      347.856      802.317
  393      348.315      802.235
  394      348.774      802.153
  395      349.234      802.127
  396      349.693      802.184
  397      350.152      802.485
  398       350.61      802.703
  399      351.069      802.683
  400      351.528      802.722
  401      351.987      802.738
  402      352.445      802.679
  403      352.904      802.632
  404      353.362      802.605
  405       353.82      802.532
  406      354.279       802.38
  407      354.737      802.238
  408      355.195      802.201
  409      355.653      802.211
  410      356.111      802.272
  411      356.569      802.392
  412      357.027      802.473
  413      357.484      802.473
  414      357.942      802.452
  415      358.399      802.264
  416      358.857      801.959
  417      359.314      801.774
  418      359.772      801.706
  419      360.229      801.526
  420      360.686      801.202
  421      361.143      801.103
  422        361.6      801.217
  423      362.057      801.443
  424      362.514      801.663
  425      362.971      801.698
  426      363.427      801.455
  427      363.884      801.084
  428       364.34      800.705
  429      364.797      800.412
  430      365.253      800.224
  431      365.709      800.058
  432      366.166      799.932
  433      366.622      799.431
  434      367.078      798.726
  435      367.534      798.371
  436       367.99      798.112
  437      368.445      797.928
  438      368.901       797.87
  439      369.357      797.836
  440      369.812      797.783
  441      370.268      797.789
  442      370.723      797.866
  443      371.179      798.037
  444      371.634      798.227
  445      372.089       798.35
  446      372.544      798.407
  447      372.999      798.452
  448      373.454      798.442
  449      373.909      798.362
  450      374.364      798.205
  451      374.818      797.934
  452      375.273      797.744
  453      375.727      797.693
  454      376.182      797.694
  455      376.636      797.725
  456       377.09      797.846
  457      377.545       798.01
  458      377.999      797.925
  459      378.453      797.673
  460      378.907      797.523
  461      379.361      797.473
  462      379.814      797.461
  463      380.268      797.456
  464      380.722      797.552
  465      381.175        797.7
  466      381.629      797.798
  467      382.082      797.879
  468      382.535      797.973
  469      382.989      797.984
  470      383.442      797.961
  471      383.895      797.976
  472      384.348      798.004
  473      384.801      798.041
  474      385.253      798.063
  475      385.706      798.069
  476      386.159      798.104
  477      386.611      798.178
  478      387.064      798.413
  479      387.516       798.82
  480      387.968      799.115
  481      388.421      799.306
  482      388.873      799.363
  483      389.325      799.448
  484      389.777      799.667
  485      390.229      799.943
  486      390.681      800.656
  487      391.132      801.484
  488      391.584      801.875
  489      392.035      802.104
  490      392.487        802.1
  491      392.938       802.02
  492       393.39       802.07
  493      393.841      802.176
  494      394.292      802.508
  495      394.743      802.975
  496      395.194      803.281
  497      395.645      803.373
  498      396.096      803.212
  499      396.546      803.053
  500      396.997      803.023
  501      397.448       803.06
  502      397.898      803.173
  503      398.349      803.285
  504      398.799      803.408
  505      399.249      803.689
  506      399.699       804.07
  507      400.149      804.334
  508      400.599       804.54
  509      401.049      804.689
  510      401.499      804.921
  511      401.949      805.143
  512      402.398      805.232
  513      402.848      805.285
  514      403.297       805.25
  515      403.747      805.191
  516      404.196      805.191
  517      404.645        805.2
  518      405.094      805.216
  519      405.543      805.225
  520      405.992      805.296
  521      406.441      805.413
  522       406.89       805.38
  523      407.339      805.418
  524      407.787      805.615
  525      408.236      805.696
  526      408.684      806.047
  527      409.132      806.634
  528      409.581      806.988
  529      410.029      807.155
  530      410.477      807.229
  531      410.925       807.25
  532      411.373      807.297
  533      411.821      807.497
  534      412.269      807.734
  535      412.716      807.772
  536      413.164      807.744
  537      413.611      807.822
  538      414.059      807.933
  539      414.506      808.016
  540      414.953      808.126
  541        415.4      808.225
  542      415.847      808.266
  543      416.294      808.254
  544      416.741      808.161
  545      417.188      808.028
  546      417.635      807.904
  547      418.081      807.813
  548      418.528      807.753
  549      418.974      807.773
  550      419.421      807.848
  551      419.867      807.918
  552      420.313      808.068
  553      420.759      808.255
  554      421.205      808.461
  555      421.651      808.702
  556      422.097      808.875
  557      422.543      808.891
  558      422.989      808.865
  559      423.434       808.81
  560       423.88      808.645
  561      424.325      808.518
  562       424.77      808.449
  563      425.216      808.446
  564      425.661      808.477
  565      426.106      808.477
  566      426.551      808.511
  567      426.996      808.659
  568       427.44      808.891
  569      427.885       809.07
  570       428.33       809.31
  571      428.774      809.584
  572      429.219      809.774
  573      429.663       809.92
  574      430.107      810.052
  575      430.551      810.198
  576      430.996      810.323
  577       431.44      810.365
  578      431.883      810.374
  579      432.327      810.268
  580      432.771      809.989
  581      433.215      809.709
  582      433.658      809.456
  583      434.102      809.293
  584      434.545       809.03
  585      434.988      808.733
  586      435.431      808.417
  587      435.875      807.563
  588      436.318      806.532
  589      436.761      805.889
  590      437.203      805.526
  591      437.646      805.331
  592      438.089      805.135
  593      438.531      804.926
  594      438.974      804.728
  595      439.416      804.504
  596      439.859      804.318
  597      440.301      804.247
  598      440.743      804.215
  599      441.185      804.245
  600      441.627      804.267
  601      442.069      804.269
  602       442.51      804.265
  603      442.952      804.224
  604      443.394      804.227
  605      443.835      804.208
  606      444.277      804.083
  607      444.718      803.899
  608      445.159      803.791
  609        445.6       803.86
  610      446.041      804.033
  611      446.482      804.072
  612      446.923      804.105
  613      447.364      804.228
  614      447.804      804.299
  615      448.245      804.492
  616      448.685      804.815
  617      449.126      805.134
  618      449.566      805.519
  619      450.006      805.854
  620      450.447      806.079
  621      450.887      806.179
  622      451.326      806.357
  623      451.766      806.622
  624      452.206      806.574
  625      452.646      806.381
  626      453.085      806.361
  627      453.525      806.058
  628      453.964      805.533
  629      454.403      805.375
  630      454.843      805.555
  631      455.282      805.779
  632      455.721      806.016
  633       456.16      806.223
  634      456.599        806.2
  635      457.037      806.079
  636      457.476      806.316
  637      457.915       806.76
  638      458.353      807.043
  639      458.791      807.232
  640       459.23      807.342
  641      459.668      807.357
  642      460.106      807.343
  643      460.544      807.322
  644      460.982      807.275
  645       461.42      807.236
  646      461.857      807.262
  647      462.295      807.357
  648      462.733      807.482
  649       463.17      807.564
  650      463.607      807.587
  651      464.045      807.606
  652      464.482      807.623
  653      464.919      807.751
  654      465.356      807.989
  655      465.793      808.153
  656       466.23      808.229
  657      466.666      808.456
  658      467.103      808.873
  659      467.539      809.208
  660      467.976      809.438
  661      468.412      809.626
  662      468.848      809.761
  663      469.284      809.836
  664       469.72      809.884
  665      470.156      809.917
  666      470.592      809.955
  667      471.028      809.956
  668      471.464      809.871
  669      471.899      809.675
  670      472.335      809.657
  671       472.77      809.671
  672      473.205      809.547
  673      473.641      809.582
  674      474.076      809.733
  675      474.511      809.861
  676      474.946      809.924
  677       475.38      810.032
  678      475.815      810.332
  679       476.25      810.639
  680      476.684      810.818
  681      477.119      811.038
  682      477.553      811.365
  683      477.987      811.723
  684      478.421      812.101
  685      478.856      812.431
  686      479.289      812.651
  687      479.723      812.833
  688      480.157      813.101
  689      480.591      813.367
  690      481.024      813.626
  691      481.458       813.96
  692      481.891      814.295
  693      482.324      814.552
  694      482.758      814.831
  695      483.191      815.121
  696      483.624      815.231
  697      484.057      815.178
  698      484.489      815.151
  699      484.922      815.262
  700      485.355      815.396
  701      485.787       815.58
  702       486.22      815.864
  703      486.652      816.092
  704      487.084      816.307
  705      487.516      816.535
  706      487.948      816.838
  707       488.38      817.093
  708      488.812      817.276
  709      489.244      817.539
  710      489.676      817.708
  711      490.107      817.793
  712      490.539      817.921
  713       490.97      818.004
  714      491.401      818.184
  715      491.832      818.498
  716      492.263      818.596
  717      492.694      818.734
  718      493.125      818.994
  719      493.556      819.069
  720      493.987      819.307
  721      494.417      819.761
  722      494.848      820.457
  723      495.278      821.134
  724      495.708      821.519
  725      496.139      821.872
  726      496.569      822.228
  727      496.999      822.612
  728      497.429      823.036
  729      497.858      823.496
  730      498.288      823.907
  731      498.718       824.32
  732      499.147      824.816
  733      499.577      825.324
  734      500.006      825.817
  735      500.435      826.305
  736      500.864      826.824
  737      501.293      827.089
  738      501.722      827.311
  739      502.151      827.797
  740       502.58      828.334
  741      503.008      828.959
  742      503.437      829.626
  743      503.865       830.49
  744      504.293      831.589
  745      504.722      832.614
  746       505.15      833.619
  747      505.578      834.802
  748      506.006      836.396
  749      506.434       838.13
  750      506.861      839.594
  751      507.289      840.902
  752      507.716       842.09
  753      508.144      843.229
  754      508.571      844.252
  755      508.998      845.204
  756      509.425      846.269
  757      509.852      847.537
  758      510.279      848.792
  759      510.706      849.969
  760      511.133       851.28
  761       511.56      852.727
  762      511.986      854.301
  763      512.412      856.003
  764      512.839      857.819
  765      513.265      859.742
  766      513.691      861.927
  767      514.117      864.362
  768      514.543       866.96
  769      514.969      869.827
  770      515.395      872.842
  771       515.82      875.782
  772      516.246      878.799
  773      516.671      882.045
  774      517.096      885.373
  775      517.522      888.802
  776      517.947       892.53
  777      518.372      896.519
  778      518.797      900.624
  779      519.222      904.802
  780      519.646      909.245
  781      520.071      914.043
  782      520.495      919.137
  783       520.92      924.603
  784      521.344      930.431
  785      521.768      936.663
  786      522.192      943.352
  787      522.616      950.553
  788       523.04      958.166
  789      523.464      966.036
  790      523.888      974.332
  791      524.311      983.168
  792      524.735      992.468
  793      525.158      1002.23
  794      525.581      1012.62
  795      526.005      1023.67
  796      526.428      1035.57
  797      526.851      1048.46
  798      527.274      1062.16
  799      527.696      1076.55
  800      528.119      1091.76
  801      528.542      1108.03
  802      528.964      1125.17
  803      529.386       1143.2
  804      529.809      1162.51
  805      530.231      1183.08
  806      530.653      1205.07
  807      531.075      1228.46
  808      531.497       1253.4
  809      531.918      1280.19
  810       532.34       1308.8
  811      532.761      1339.43
  812      533.183      1372.28
  813      533.604      1407.22
  814      534.025      1444.46
  815      534.447      1483.58
  816      534.868      1524.12
  817      535.289      1566.26
  818      535.709      1609.75
  819       536.13      1654.79
  820      536.551      1701.49
  821      536.971      1749.72
  822      537.392      1799.41
  823      537.812      1850.57
  824      538.232      1903.21
  825      538.652       1957.1
  826      539.072      2012.03
  827      539.492      2067.98
  828      539.912      2124.62
  829      540.331      2182.03
  830      540.751      2240.18
  831       541.17      2298.52
  832       541.59      2356.76
  833      542.009      2415.17
  834      542.428       2473.7
  835      542.847      2532.13
  836      543.266      2590.79
  837      543.685      2649.93
  838      544.104      2709.05
  839      544.522      2767.69
  840      544.941      2825.88
  841      545.359      2883.51
  842      545.778      2940.26
  843      546.196      2996.62
  844      546.614       3052.7
  845      547.032      3108.19
  846       547.45      3163.43
  847      547.867      3218.11
  848      548.285      3272.12
  849      548.703      3325.48
  850       549.12      3378.02
  851      549.538      3429.71
  852      549.955      3480.64
  853      550.372      3530.96
  854      550.789      3580.56
  855      551.206      3629.44
  856      551.623      3677.42
  857      552.039       3724.1
  858      552.456      3770.13
  859      552.873      3815.22
  860      553.289      3858.88
  861      553.705      3901.22
  862      554.121      3942.33
  863      554.537      3982.67
  864      554.953      4022.09
  865      555.369      4060.18
  866      555.785      4096.93
  867      556.201       4132.5
  868      556.616      4166.89
  869      557.032      4199.76
  870      557.447      4231.03
  871      557.862      4261.21
  872      558.277      4290.59
  873      558.692      4319.24
  874      559.107      4347.23
  875      559.522      4374.48
  876      559.937      4400.96
  877      560.351      4426.55
  878      560.766      4451.13
  879       561.18      4474.76
  880      561.595      4497.38
  881      562.009      4518.92
  882      562.423      4539.35
  883      562.837      4558.68
  884       563.25      4576.82
  885      563.664      4593.83
  886      564.078      4609.82
  887      564.491      4624.75
  888      564.905      4638.53
  889      565.318      4651.15
  890      565.731      4662.76
  891      566.144      4673.37
  892      566.557      4682.74
  893       566.97      4690.84
  894      567.383      4697.99
  895      567.795      4704.24
  896      568.208      4709.51
  897       568.62      4713.57
  898      569.033      4716.22
  899      569.445       4717.6
  900      569.857      4717.73
  901      570.269      4716.49
  902      570.681      4713.84
  903      571.093      4710.02
  904      571.504      4705.33
  905      571.916      4699.29
  906      572.327      4691.29
  907      572.739      4681.32
  908       573.15      4669.56
  909      573.561         4656
  910      573.972      4640.37
  911      574.383      4622.49
  912      574.794      4602.14
  913      575.204      4579.26
  914      575.615      4554.05
  915      576.025      4526.23
  916      576.436      4496.09
  917      576.846       4464.2
  918      577.256      4430.58
  919      577.666      4395.38
  920      578.076      4358.33
  921      578.486      4319.47
  922      578.896      4278.77
  923      579.305      4236.18
  924      579.715      4191.72
  925      580.124      4145.46
  926      580.533       4097.9
  927      580.942      4049.22
  928      581.351      3999.39
  929       581.76      3948.74
  930      582.169      3897.27
  931      582.578      3844.93
  932      582.986      3792.12
  933      583.395      3739.02
  934      583.803      3685.56
  935      584.212       3631.9
  936       584.62      3578.23
  937      585.028      3524.12
  938      585.436      3469.33
  939      585.843      3414.72
  940      586.251       3360.5
  941      586.659      3306.28
  942      587.066      3252.46
  943      587.474       3199.4
  944      587.881       3146.6
  945      588.288      3093.71
  946      588.695      3041.02
  947      589.102      2988.77
  948      589.509      2937.18
  949      589.915      2885.89
  950      590.322      2834.89
  951      590.728      2784.58
  952      591.135      2735.11
  953      591.541      2686.34
  954      591.947      2638.16
  955      592.353      2590.67
  956      592.759      2543.67
  957      593.165      2497.41
  958      593.571      2452.29
  959      593.976      2407.58
  960      594.382       2363.6
  961      594.787      2320.92
  962      595.192      2280.16
  963      595.597      2241.05
  964      596.002      2202.15
  965      596.407      2163.79
  966      596.812      2126.49
  967      597.217      2090.23
  968      597.621      2054.78
  969      598.026      2020.06
  970       598.43      1986.56
  971      598.834       1954.4
  972      599.238      1923.16
  973      599.642      1892.72
  974      600.046       1863.1
  975       600.45      1834.01
  976      600.854      1805.24
  977      601.257      1776.93
  978      601.661      1749.29
  979      602.064      1722.36
  980      602.467      1696.06
  981       602.87      1670.47
  982      603.273      1645.86
  983      603.676      1622.15
  984      604.079         1599
  985      604.481      1576.48
  986      604.884      1554.64
  987      605.286      1533.42
  988      605.689      1512.88
  989      606.091      1492.99
  990      606.493      1474.21
  991      606.895      1456.36
  992      607.297      1438.79
  993      607.698      1421.76
  994        608.1       1405.3
  995      608.501       1389.2
  996      608.903      1373.51
  997      609.304      1358.12
  998      609.705         1343
  999      610.106      1328.29
 1000      610.507      1314.02
 1001      610.908      1300.32
 1002      611.308      1287.22
 1003      611.709      1274.41
 1004      612.109      1261.65
 1005       612.51       1248.7
 1006       612.91      1235.86
 1007       613.31      1223.79
 1008       613.71       1212.3
 1009       614.11      1201.16
 1010       614.51      1190.25
 1011      614.909      1179.54
 1012      615.309      1169.14
 1013      615.708      1159.37
 1014      616.108      1150.08
 1015      616.507      1140.91
 1016      616.906      1132.02
 1017      617.305      1123.44
 1018      617.704      1115.02
 1019      618.102      1106.78
 1020      618.501      1098.56
 1021      618.899      1090.51
 1022      619.298      1082.75
 1023      619.696      1075.21
 1024      620.094      1068.01
 1025      620.492      1061.12
 1026       620.89      1054.39
 1027      621.288      1047.87
 1028      621.686      1041.55
 1029      622.083       1035.4
 1030       622.48      1029.35
 1031      622.878      1023.43
 1032      623.275      1017.69
 1033      623.672       1012.2
 1034      624.069      1006.94
 1035      624.466      1001.78
 1036      624.863      996.688
 1037      625.259       991.71
 1038      625.656      986.949
 1039      626.052      982.405
 1040      626.448      977.712
 1041      626.844      972.979
 1042      627.241      968.606
 1043      627.636      964.417
 1044      628.032      960.305
 1045      628.428      956.281
 1046      628.823      952.675
 1047      629.219      949.383
 1048      629.614      945.821
 1049      630.009       942.09
 1050      630.404      938.509
 1051      630.799      934.768
 1052      631.194      931.481
 1053      631.589      928.802
 1054      631.984      925.977
 1055      632.378      923.078
 1056      632.772      920.288
 1057      633.167      917.707
 1058      633.561      915.081
 1059      633.955      912.466
 1060      634.349      909.945
 1061      634.743      907.522
 1062      635.136      905.181
 1063       635.53      902.156
 1064      635.923      899.316
 1065      636.316      897.487
 1066       636.71      895.478
 1067      637.103      893.387
 1068      637.496      891.321
 1069      637.888      889.347
 1070      638.281      887.531
 1071      638.674      885.798
 1072      639.066      884.084
 1073      639.459      882.325
 1074      639.851      880.463
 1075      640.243      878.338
 1076      640.635      876.161
 1077      641.027      874.232
 1078      641.419      872.499
 1079       641.81       870.82
 1080      642.202      869.219
 1081      642.593      867.718
 1082      642.984      866.412
 1083      643.375      865.049
 1084      643.766      863.502
 1085      644.157      862.084
 1086      644.548      860.769
 1087      644.939      859.509
 1088      645.329      858.291
 1089       645.72      857.121
 1090       646.11      855.979
 1091        646.5      854.418
 1092       646.89       852.67
 1093       647.28      851.268
 1094       647.67      850.015
 1095       648.06        848.9
 1096      648.449      847.838
 1097      648.839      846.767
 1098      649.228      845.698
 1099      649.617      844.675
 1100      650.007      843.723
 1101      650.396      842.864
 1102      650.784      842.026
 1103      651.173      841.076
 1104      651.562      840.212
 1105       651.95       839.57
 1106      652.339      839.017
 1107      652.727      838.424
 1108      653.115      837.747
 1109      653.503      837.001
 1110      653.891       836.21
 1111      654.279      835.478
 1112      654.666      834.846
 1113      655.054      834.489
 1114      655.441      834.129
 1115      655.828      833.476
 1116      656.216      832.848
 1117      656.603      832.201
 1118      656.989      831.536
 1119      657.376        830.9
 1120      657.763      830.248
 1121      658.149       829.67
 1122      658.536      829.175
 1123      658.922      828.661
 1124      659.308      828.171
 1125      659.694      827.652
 1126       660.08      827.049
 1127      660.466      826.496
 1128      660.852      826.008
 1129      661.237      825.559
 1130      661.623      825.309
 1131      662.008      825.152
 1132      662.393      824.847
 1133      662.778      824.473
 1134      663.163      824.041
 1135      663.548      823.572
 1136      663.933        823.1
 1137      664.317      822.824
 1138      664.702      822.742
 1139      665.086      822.558
 1140       665.47      822.762
 1141      665.854      823.316
 1142      666.238      823.487
 1143      666.622       823.38
 1144      667.006      823.264
 1145      667.389      823.201
 1146      667.773      823.169
 1147      668.156      822.892
 1148      668.539      822.362
 1149      668.923      821.922
 1150      669.305      821.662
 1151      669.688      821.559
 1152      670.071      821.451
 1153      670.454      820.799
 1154      670.836      819.791
 1155      671.218      819.128
 1156      671.601      818.622
 1157      671.983       818.08
 1158      672.365      818.291
 1159      672.747      819.216
 1160      673.128      819.663
 1161       673.51      819.823
 1162      673.891      819.822
 1163      674.273      819.789
 1164      674.654      819.917
 1165      675.035      819.373
 1166      675.416       818.21
 1167      675.797      817.469
 1168      676.177      817.123
 1169      676.558       817.04
 1170      676.938      816.869
 1171      677.319      816.662
 1172      677.699      816.467
 1173      678.079      816.219
 1174      678.459      815.955
 1175      678.839      815.737
 1176      679.219      815.547
 1177      679.598      815.377
 1178      679.978       815.16
 1179      680.357      814.876
 1180      680.736      814.801
 1181      681.115      815.236
 1182      681.494      815.805
 1183      681.873      815.899
 1184      682.252      815.676
 1185       682.63      815.473
 1186      683.009      815.294
 1187      683.387      815.115
 1188      683.765      814.954
 1189      684.143      814.798
 1190      684.521      814.649
 1191      684.899      814.498
 1192      685.277      814.347
 1193      685.654      814.121
 1194      686.032      813.804
 1195      686.409      813.619
 1196      686.786      813.551
 1197      687.163      813.398
 1198       687.54      813.163
 1199      687.917      812.906
 1200      688.294      812.681
 1201       688.67      812.452
 1202      689.046      812.174
 1203      689.423      811.988
 1204      689.799      811.932
 1205      690.175      811.792
 1206      690.551      811.501
 1207      690.927      811.106
 1208      691.302      810.732
 1209      691.678      810.482
 1210      692.053      810.281
 1211      692.428      810.129
 1212      692.804      810.081
 1213      693.179      810.043
 1214      693.553      809.722
 1215      693.928      809.198
 1216      694.303      808.826
 1217      694.677      808.504
 1218      695.052      808.221
 1219      695.426      808.162
 1220        695.8      808.246
 1221      696.174      808.212
 1222      696.548      808.186
 1223      696.921      808.131
 1224      697.295      808.147
 1225      697.669      808.243
 1226      698.042      808.177
 1227      698.415      808.176
 1228      698.788      808.373
 1229      699.161       808.58
 1230      699.534      808.588
 1231      699.907      808.253
 1232      700.279      807.827
 1233      700.652      807.549
 1234      701.024      807.284
 1235      701.396      807.011
 1236      701.768      806.768
 1237       702.14      806.583
 1238      702.512      806.244
 1239      702.883      805.791
 1240      703.255       805.52
 1241      703.626      804.808
 1242      703.998      803.736
 1243      704.369      803.133
 1244       704.74      802.867
 1245      705.111      802.873
 1246      705.481      802.941
 1247      705.852      802.841
 1248      706.222      802.696
 1249      706.593      802.585
 1250      706.963      802.456
 1251      707.333      802.196
 1252      707.703      801.843
 1253      708.073      801.585
 1254      708.442       802.86
 1255      708.812      805.185
 1256      709.181      806.492
 1257      709.551      807.215
 1258       709.92      807.588
 1259      710.289      806.966
 1260      710.658      805.652
 1261      711.027      804.841
 1262      711.395      804.434
 1263      711.764       804.32
 1264      712.132      804.213
 1265        712.5      803.873
 1266      712.869      803.484
 1267      713.236      803.157
 1268      713.604      802.835
 1269      713.972      802.419
 1270       714.34      801.974
 1271      714.707      801.588
 1272      715.074      801.207
 1273      715.442      800.879
 1274      715.809      800.613
 1275      716.176      800.487
 1276      716.542      800.399
 1277      716.909      800.281
 1278      717.276      800.163
 1279      717.642      800.044
 1280      718.008      799.915
 1281      718.374      799.601
 1282       718.74      798.907
 1283      719.106      798.217
 1284      719.472      797.876
 1285      719.838      797.692
 1286      720.203      797.564
 1287      720.568      797.472
 1288      720.934      797.403
 1289      721.299      797.354
 1290      721.664      797.254
 1291      722.029      797.081
 1292      722.393      796.945
 1293      722.758       796.96
 1294      723.122      797.138
 1295      723.486      797.353
 1296      723.851      797.481
 1297      724.215      797.471
 1298      724.578      797.528
 1299      724.942      797.655
 1300      725.306      797.772
 1301      725.669      797.799
 1302      726.033      797.817
 1303      726.396      797.858
 1304      726.759      797.745
 1305      727.122      797.537
 1306      727.485      797.333
 1307      727.847       797.14
 1308       728.21      797.113
 1309      728.572      797.145
 1310      728.935      797.071
 1311      729.297      796.951
 1312      729.659      796.815
 1313      730.021      796.548
 1314      730.382       796.22
 1315      730.744      795.964
 1316      731.105      795.837
 1317      731.467      795.796
 1318      731.828      796.293
 1319      732.189      797.119
 1320       732.55      797.388
 1321      732.911      797.372
 1322      733.271       797.42
 1323      733.632      797.478
 1324      733.992      797.518
 1325      734.352      797.425
 1326      734.713      797.183
 1327      735.072      797.065
 1328      735.432      796.887
 1329      735.792      796.538
 1330      736.152      796.207
 1331      736.511      795.994
 1332       736.87      795.868
 1333      737.229       795.74
 1334      737.589      795.611
 1335      737.947      795.523
 1336      738.306      795.477
 1337      738.665      795.525
 1338      739.023      795.674
 1339      739.382      795.818
 1340       739.74      795.953
 1341      740.098      796.048
 1342      740.456      796.078
 1343      740.814      796.083
 1344      741.171      795.985
 1345      741.529      795.747
 1346      741.886       795.37
 1347      742.244      795.219
 1348      742.601      795.272
 1349      742.958      795.233
 1350      743.314      795.197
 1351      743.671      795.133
 1352      744.028      795.061
 1353      744.384       794.98
 1354       744.74      794.851
 1355      745.097      793.266
 1356      745.453      790.729
 1357      745.809      789.233
 1358      746.164      788.317
 1359       746.52      787.782
 1360      746.875      787.475
 1361      747.231      787.268
 1362      747.586      787.108
 1363      747.941       786.89
 1364      748.296      786.566
 1365      748.651       786.24
 1366      749.005      785.962
 1367       749.36      785.765
 1368      749.714      785.661
 1369      750.069      785.563
 1370      750.423      785.411
 1371      750.777      785.229
 1372       751.13      785.129
 1373      751.484      785.086
 1374      751.838      785.073
 1375      752.191      785.122
 1376      752.544      785.101
 1377      752.897      785.011
 1378       753.25      784.969
 1379      753.603      784.918
 1380      753.956      784.906
 1381      754.309      784.961
 1382      754.661      784.924
 1383      755.013      784.729
 1384      755.365      784.441
 1385      755.717      784.175
 1386      756.069      783.995
 1387      756.421      783.989
 1388      756.773      784.197
 1389      757.124      784.387
 1390      757.476      784.531
 1391      757.827      784.698
 1392      758.178      784.811
 1393      758.529      784.829
 1394      758.879      784.763
 1395       759.23      784.573
 1396      759.581      784.539
 1397      759.931       784.64
 1398      760.281      784.729
 1399      760.631      784.779
 1400      760.981      785.074
 1401      761.331       785.67
 1402      761.681      786.037
 1403       762.03       786.18
 1404      762.379      786.244
 1405      762.729      786.362
 1406      763.078       786.45
 1407      763.427      786.515
 1408      763.776      786.622
 1409      764.124      786.638
 1410      764.473       786.58
 1411      764.821      786.609
 1412      765.169      786.655
 1413      765.517      786.646
 1414      765.865      786.644
 1415      766.213      786.845
 1416      766.561      787.153
 1417      766.909       787.23
 1418      767.256      787.134
 1419      767.603      786.575
 1420       767.95      785.692
 1421      768.297      785.174
 1422      768.644      784.921
 1423      768.991      784.802
 1424      769.337      784.646
 1425      769.684      784.402
 1426       770.03      784.199
 1427      770.376      784.084
 1428      770.722      783.976
 1429      771.068      783.909
 1430      771.414      783.963
 1431      771.759      784.044
 1432      772.105      784.214
 1433       772.45      784.691
 1434      772.795      785.195
 1435       773.14      785.453
 1436      773.485      785.602
 1437       773.83      785.772
 1438      774.174      785.807
 1439      774.519      785.732
 1440      774.863      785.726
 1441      775.207      785.653
 1442      775.551      785.494
 1443      775.895      785.361
 1444      776.239      785.271
 1445      776.582      785.219
 1446      776.926      785.248
 1447      777.269      785.191
 1448      777.612      784.904
 1449      777.955      784.706
 1450      778.298       784.61
 1451      778.641      784.565
 1452      778.983      784.713
 1453      779.326      784.867
 1454      779.668      785.022
 1455       780.01      785.215
 1456      780.352      785.329
 1457      780.694      785.358
 1458      781.036      785.336
 1459      781.377      785.337
 1460      781.719      785.316
 1461       782.06      785.222
 1462      782.401      785.276
 1463      782.742      785.424
 1464      783.083      785.461
 1465      783.424      785.522
 1466      783.764      785.693
 1467      784.105      785.871
 1468      784.445      785.936
 1469      784.785      786.038
 1470      785.125       786.25
 1471      785.465      786.404
 1472      785.805      786.559
 1473      786.144      786.731
 1474      786.484      786.818
 1475      786.823      786.801
 1476      787.162      786.727
 1477      787.501       786.71
 1478       787.84      786.784
 1479      788.178      786.949
 1480      788.517      787.331
 1481      788.855      787.746
 1482      789.194      787.917
 1483      789.532      788.062
 1484       789.87      788.183
 1485      790.208      788.524
 1486      790.545      789.026
 1487      790.883      789.298
 1488       791.22      789.308
 1489      791.557       789.02
 1490      791.894      788.883
 1491      792.231        788.9
 1492      792.568      788.843
 1493      792.905      789.016
 1494      793.241      789.323
 1495      793.578      789.427
 1496      793.914      789.422
 1497       794.25      789.204
 1498      794.586      788.817
 1499      794.922      788.494
 1500      795.257      788.268
 1501      795.593      787.765
 1502      795.928       786.97
 1503      796.263      786.494
 1504      796.598      786.294
 1505      796.933      786.177
 1506      797.268      786.054
 1507      797.603      785.932
 1508      797.937      785.796
 1509      798.271      785.661
 1510      798.606      785.806
 1511       798.94      786.186
 1512      799.274      786.478
 1513      799.607      786.857
 1514      799.941      787.354
 1515      800.274      787.736
 1516      800.608      787.763
 1517      800.941      787.668
 1518      801.274       787.71
 1519      801.607      787.807
 1520      801.939      787.842
 1521      802.272      787.795
 1522      802.604      787.741
 1523      802.936      787.616
 1524      803.269      787.438
 1525      803.601      787.342
 1526      803.932      787.361
 1527      804.264      787.407
 1528      804.596       787.49
 1529      804.927      787.682
 1530      805.258      787.871
 1531      805.589      788.062
 1532       805.92       788.32
 1533      806.251      788.304
 1534      806.582      787.995
 1535      806.912      787.717
 1536      807.242      787.592
 1537      807.573      787.771
 1538      807.903      788.054
 1539      808.232      788.117
 1540      808.562      788.033
 1541      808.892      787.835
 1542      809.221      787.771
 1543      809.551      787.891
 1544       809.88      787.982
 1545      810.209      788.048
 1546      810.538      788.243
 1547      810.866      788.407
 1548      811.195      788.522
 1549      811.523      788.546
 1550      811.851      788.541
 1551       812.18      788.938
 1552      812.507      789.485
 1553      812.835      789.788
 1554      813.163      789.932
 1555       813.49      789.939
 1556      813.818      789.809
 1557      814.145      789.759
 1558      814.472       789.81
 1559      814.799      789.879
 1560      815.126      789.944
 1561      815.452      789.974
 1562      815.779       790.04
 1563      816.105      789.978
 1564      816.431      789.817
 1565      816.757      789.786
 1566      817.083      789.857
 1567      817.409      789.923
 1568      817.734      789.911
 1569       818.06      789.888
 1570      818.385      789.808
 1571       818.71       789.71
 1572      819.035      789.639
 1573       819.36        789.5
 1574      819.685      789.334
 1575      820.009      789.249
 1576      820.333      789.245
 1577      820.658      789.221
 1578      820.982      789.143
 1579      821.305      791.645
 1580      821.629      795.832
 1581      821.953      797.937
 1582      822.276       798.93
 1583        822.6      799.538
 1584      822.923      799.935
 1585      823.246      800.179
 1586      823.569      800.218
 1587      823.891      800.075
 1588      824.214      799.976
 1589      824.536      799.976
 1590      824.858      800.036
 1591       825.18      799.892
 1592      825.502      799.787
 1593      825.824      800.119
 1594      826.146      800.365
 1595      826.467      800.326
 1596      826.789      800.276
 1597       827.11      800.235
 1598      827.431      800.176
 1599      827.752      800.385
 1600      828.072      800.789
 1601      828.393      800.967
 1602      828.713      801.072
 1603      829.034      801.163
 1604      829.354       801.28
 1605      829.674      801.453
 1606      829.993      801.644
 1607      830.313      801.984
 1608      830.633      802.449
 1609      830.952       802.77
 1610      831.271      802.989
 1611       831.59      802.838
 1612      831.909      802.506
 1613      832.228      802.267
 1614      832.546       801.85
 1615      832.865      801.325
 1616      833.183      800.947
 1617      833.501      800.735
 1618      833.819      800.495
 1619      834.137      800.243
 1620      834.455      800.028
 1621      834.772      799.827
 1622      835.089      799.705
 1623      835.407      799.584
 1624      835.724      799.495
 1625       836.04      799.453
 1626      836.357      799.489
 1627      836.674      799.629
 1628       836.99      799.757
 1629      837.306      799.818
 1630      837.623      799.686
 1631      837.939      799.458
 1632      838.254      799.084
 1633       838.57       798.58
 1634      838.886      798.292
 1635      839.201      798.037
 1636      839.516      797.718
 1637      839.831       797.49
 1638      840.146      797.062
 1639      840.461      796.512
 1640      840.775      796.244
 1641       841.09      796.097
 1642      841.404      796.114
 1643      841.718       796.14
 1644      842.032      795.996
 1645      842.346      795.995
 1646      842.659      796.043
 1647      842.973      795.873
 1648      843.286      795.681
 1649      843.599      795.546
 1650      843.912      795.457
 1651      844.225      795.219
 1652      844.538      794.617
 1653      844.851      794.135
 1654      845.163      793.962
 1655      845.475      793.812
 1656      845.787      793.971
 1657      846.099      794.403
 1658      846.411      794.612
 1659      846.723      794.665
 1660      847.034       794.71
 1661      847.345      794.878
 1662      847.657      795.139
 1663      847.968      795.237
 1664      848.278      795.254
 1665      848.589      795.261
 1666        848.9      795.191
 1667       849.21       794.93
 1668       849.52      794.608
 1669       849.83      794.402
 1670       850.14      794.509
 1671       850.45      794.775
 1672      850.759      794.856
 1673      851.069       794.92
 1674      851.378      794.999
 1675      851.687      795.307
 1676      851.996      795.743
 1677      852.305       795.97
 1678      852.614      796.045
 1679      852.922        796.1
 1680       853.23      793.567
 1681      853.539      789.211
 1682      853.847      786.715
 1683      854.154      785.267
 1684      854.462      784.351
 1685       854.77       783.66
 1686      855.077      783.199
 1687      855.384      782.767
 1688      855.691      782.384
 1689      855.998       782.17
 1690      856.305      781.961
 1691      856.612      781.763
 1692      856.918       781.66
 1693      857.224      781.441
 1694       857.53      780.874
 1695      857.836      780.241
 1696      858.142      779.797
 1697      858.448      779.568
 1698      858.753      779.493
 1699      859.059      779.457
 1700      859.364      779.139
 1701      859.669       778.65
 1702      859.974      778.345
 1703      860.278      778.091
 1704      860.583      777.875
 1705      860.887      777.692
 1706      861.192      777.418
 1707      861.496      777.132
 1708        861.8       776.74
 1709      862.103      776.233
 1710      862.407      775.949
 1711       862.71      775.762
 1712      863.014      775.662
 1713      863.317      775.564
 1714       863.62      775.443
 1715      863.922      775.481
 1716      864.225      775.593
 1717      864.527      775.597
 1718       864.83      775.562
 1719      865.132      775.537
 1720      865.434      775.496
 1721      865.736      775.478
 1722      866.037      775.495
 1723      866.339      775.478
 1724       866.64      775.491
 1725      866.941      775.558
 1726      867.242      775.619
 1727      867.543      775.492
 1728      867.844      775.174
 1729      868.145       774.84
 1730      868.445      774.728
 1731      868.745      774.862
 1732      869.045      774.942
 1733      869.345      775.176
 1734      869.645      775.552
 1735      869.944      775.742
 1736      870.244      775.834
 1737      870.543      775.954
 1738      870.842      776.068
 1739      871.141      776.151
 1740       871.44      776.208
 1741      871.739      776.272
 1742      872.037      776.414
 1743      872.335       776.49
 1744      872.634      776.721
 1745      872.931        777.2
 1746      873.229      777.372
 1747      873.527       777.33
 1748      873.824      777.631
 1749      874.122      778.142
 1750      874.419      778.438
 1751      874.716      778.803
 1752      875.013      779.241
 1753      875.309      779.463
 1754      875.606      779.494
 1755      875.902      779.788
 1756      876.199      780.329
 1757      876.495      780.433
 1758       876.79      780.252
 1759      877.086      780.101
 1760      877.382      779.997
 1761      877.677       779.94
 1762      877.972      779.765
 1763      878.267      779.496
 1764      878.562      779.521
 1765      878.857      779.746
 1766      879.152      779.864
 1767      879.446      779.997
 1768       879.74      780.161
 1769      880.034      780.212
 1770      880.328      780.213
 1771      880.622      779.982
 1772      880.916      779.551
 1773      881.209      779.242
 1774      881.502       779.01
 1775      881.795       778.94
 1776      882.088      778.723
 1777      882.381      778.309
 1778      882.674      778.049
 1779      882.966      777.986
 1780      883.258      777.996
 1781      883.551      777.915
 1782      883.843      777.869
 1783      884.134      777.868
 1784      884.426      777.848
 1785      884.717      777.818
 1786      885.009      777.814
 1787        885.3      777.873
 1788      885.591      777.913
 1789      885.882      777.845
 1790      886.172       777.76
 1791      886.463      777.767
 1792      886.753      777.872
 1793      887.043      778.048
 1794      887.333      778.192
 1795      887.623      778.193
 1796      887.913      778.127
 1797      888.202      778.071
 1798      888.492      778.171
 1799      888.781      778.402
 1800       889.07      778.568
 1801      889.359      778.651
 1802      889.647      778.693
 1803      889.936      778.722
 1804      890.224      778.768
 1805      890.512      778.883
 1806        890.8      779.007
 1807      891.088       779.12
 1808      891.376      779.322
 1809      891.663      779.588
 1810      891.951       779.78
 1811      892.238      779.845
 1812      892.525      780.176
 1813      892.812      780.712
 1814      893.099      780.945
 1815      893.385      781.015
 1816      893.671      780.965
 1817      893.958      780.897
 1818      894.244      780.931
 1819       894.53      781.273
 1820      894.815      781.788
 1821      895.101      782.095
 1822      895.386      782.254
 1823      895.671      782.348
 1824      895.956      782.431
 1825      896.241      782.465
 1826      896.526       782.48
 1827       896.81      782.455
 1828      897.095      782.368
 1829      897.379      782.298
 1830      897.663      782.266
 1831      897.947       782.07
 1832      898.231      781.767
 1833      898.514      781.625
 1834      898.798      781.323
 1835      899.081      780.895
 1836      899.364      780.667
 1837      899.647      780.499
 1838      899.929      780.319
 1839      900.212      780.114
 1840      900.494      779.881
 1841      900.776      779.656
 1842      901.058      779.447
 1843       901.34      779.328
 1844      901.622      779.273
 1845      901.904      779.147
 1846      902.185      778.923
 1847      902.466      778.729
 1848      902.747      778.592
 1849      903.028      778.135
 1850      903.309      777.479
 1851      903.589       777.07
 1852       903.87      776.646
 1853       904.15      776.184
 1854       904.43      775.929
 1855       904.71      775.618
 1856      904.989      774.901
 1857      905.269      774.163
 1858      905.548      773.735
 1859      905.827      773.395
 1860      906.106      773.231
 1861      906.385      773.105
 1862      906.664      772.942
 1863      906.942      772.817
 1864      907.221      772.747
 1865      907.499      772.536
 1866      907.777      772.237
 1867      908.055      772.074
 1868      908.332      771.901
 1869       908.61      771.758
 1870      908.887      771.693
 1871      909.164      771.634
 1872      909.441       771.62
 1873      909.718      771.704
 1874      909.995      771.842
 1875      910.271      772.008
 1876      910.548      772.051
 1877      910.824      771.981
 1878        911.1      772.014
 1879      911.375      772.116
 1880      911.651      772.131
 1881      911.927      772.042
 1882      912.202      771.989
 1883      912.477      771.946
 1884      912.752      771.869
 1885      913.027      771.846
 1886      913.301      771.942
 1887      913.576      772.055
 1888       913.85       772.11
 1889      914.124      772.244
 1890      914.398      772.418
 1891      914.672      772.519
 1892      914.945      772.567
 1893      915.219      772.548
 1894      915.492      772.391
 1895      915.765      772.206
 1896      916.038      772.157
 1897      916.311      772.409
 1898      916.583      772.809
 1899      916.856      772.847
 1900      917.128      772.636
 1901        917.4      772.471
 1902      917.672      772.377
 1903      917.944      772.424
 1904      918.215      772.787
 1905      918.486      773.192
 1906      918.758      773.347
 1907      919.029      773.319
 1908      919.299      773.221
 1909       919.57      773.007
 1910      919.841      772.739
 1911      920.111      772.679
 1912      920.381       772.73
 1913      920.651      772.387
 1914      920.921      771.767
 1915      921.191      771.417
 1916       921.46      771.254
 1917      921.729      771.188
 1918      921.999      771.094
 1919      922.268      771.019
 1920      922.536      770.736
 1921      922.805      770.249
 1922      923.073      769.934
 1923      923.342      769.794
 1924       923.61       769.73
 1925      923.878      769.686
 1926      924.145      769.697
 1927      924.413      769.637
 1928       924.68       769.58
 1929      924.948      769.726
 1930      925.215      769.998
 1931      925.482      770.215
 1932      925.748      770.345
 1933      926.015      770.401
 1934      926.281      770.414
 1935      926.547      770.452
 1936      926.813      770.508
 1937      927.079      770.587
 1938      927.345       770.74
 1939       927.61      770.896
 1940      927.876      771.034
 1941      928.141      771.147
 1942      928.406        771.2
 1943      928.671      771.203
 1944      928.935      771.209
 1945        929.2       771.42
 1946      929.464      771.517
 1947      929.728      771.316
 1948      929.992      771.205
 1949      930.256       771.17
 1950       930.52        771.2
 1951      930.783      771.259
 1952      931.046      771.273
 1953      931.309      771.226
 1954      931.572      771.273
 1955      931.835      771.396
 1956      932.097      771.466
 1957       932.36      771.491
 1958      932.622      771.437
 1959      932.884      771.295
 1960      933.146      771.157
 1961      933.408      771.041
 1962      933.669      770.937
 1963       933.93      770.849
 1964      934.192      770.721
 1965      934.453      770.632
 1966      934.713      770.741
 1967      934.974      770.891
 1968      935.234      770.923
 1969      935.495      770.909
 1970      935.755      770.861
 1971      936.015      770.838
 1972      936.274      770.841
 1973      936.534      770.826
 1974      936.793       770.77
 1975      937.053      770.681
 1976      937.312       770.55
 1977      937.571      770.417
 1978      937.829      770.301
 1979      938.088      770.193
 1980      938.346      770.173
 1981      938.604      770.193
 1982      938.862      770.183
 1983       939.12      770.168
 1984      939.378      770.224
 1985      939.635      770.294
 1986      939.893      770.328
 1987       940.15      770.341
 1988      940.407      770.354
 1989      940.663      770.323
 1990       940.92      770.177
 1991      941.176      770.103
 1992      941.433      770.152
 1993      941.689      770.149
 1994      941.944       770.11
 1995        942.2      770.111
 1996      942.456      770.091
 1997      942.711      770.016
 1998      942.966      769.838
 1999      943.221      769.532
 2000      943.476       769.41
 2001      943.731      769.374
 2002      943.985      769.398
 2003      944.239      769.458
 2004      944.493      769.361
 2005      944.747      768.942
 2006      945.001      768.516
 2007      945.255      768.309
 2008      945.508       768.23
 2009      945.761      768.234
 2010      946.014       768.25
 2011      946.267      768.208
 2012       946.52       768.04
 2013      946.772      767.867
 2014      947.025      767.833
 2015      947.277      767.892
 2016      947.529      767.974
 2017      947.781      768.038
 2018      948.032      768.082
 2019      948.284      768.159
 2020      948.535      768.179
 2021      948.786       768.11
 2022      949.037      768.125
 2023      949.288      768.225
 2024      949.538       768.27
 2025      949.789      768.316
 2026      950.039      768.402
 2027      950.289      768.456
 2028      950.539      768.528
 2029      950.788      768.593
 2030      951.038      768.493
 2031      951.287      768.263
 2032      951.536      768.128
 2033      951.785      768.117
 2034      952.034       768.16
 2035      952.282      768.201
 2036      952.531      768.226
 2037      952.779       768.25
 2038      953.027      768.218
 2039      953.275      768.076
 2040      953.523      767.948
 2041       953.77      767.905
 2042      954.017      767.988
 2043      954.264      768.167
 2044      954.511      768.355
 2045      954.758      768.314
 2046      955.005      767.709
 2047      955.251      766.952
