scansci Spectrometer Data File
--- Measurement Setting ---
Type: Sample Spectrum
Date: Fri Nov 22 17:53:57 2024
User: (Reserved by scansci)
Serial: (Reserved by scansci)
Channel: No. 11
Integration Time: 36
Average: 30
Boxcar: 50
Electrical Dark: No-corrected
Time Normalize: (Reserved by scansci)
Dual-beam: (Reserved by scansci)
Reference Ch: (Reserved by scansci)
--- Measurement Data ---
Pixel   Wavelength   Intensity
    0        162.5       813.71
    1      162.985      813.732
    2      163.469      813.722
    3      163.954      813.716
    4      164.439      813.739
    5      164.923      813.768
    6      165.408      813.805
    7      165.892      813.852
    8      166.377      813.915
    9      166.861      813.965
   10      167.345      813.969
   11       167.83      813.962
   12      168.314       813.95
   13      168.798      813.931
   14      169.282      813.933
   15      169.766      813.979
   16       170.25      814.046
   17      170.734      814.106
   18      171.218      814.158
   19      171.702      814.198
   20      172.185        814.2
   21      172.669      814.199
   22      173.153      814.209
   23      173.636      814.227
   24       174.12      814.256
   25      174.603       814.29
   26      175.087      814.339
   27       175.57      814.395
   28      176.053      814.432
   29      176.537      814.481
   30       177.02      814.535
   31      177.503      814.569
   32      177.986      814.597
   33      178.469      814.611
   34      178.952      814.616
   35      179.435       814.63
   36      179.918      814.638
   37      180.401      814.629
   38      180.884      814.612
   39      181.366      814.624
   40      181.849      814.664
   41      182.332      814.701
   42      182.814       814.73
   43      183.297      814.754
   44      183.779      814.777
   45      184.262      814.805
   46      184.744      814.823
   47      185.226      814.838
   48      185.708      814.848
   49      186.191      814.873
   50      186.673      814.915
   51      187.155      815.018
   52      187.637      815.088
   53      188.119      815.167
   54        188.6       815.25
   55      189.082      815.315
   56      189.564      815.385
   57      190.046      815.471
   58      190.527       815.55
   59      191.009      815.638
   60      191.491      815.698
   61      191.972      815.748
   62      192.454      815.825
   63      192.935      815.903
   64      193.416      815.974
   65      193.897      816.039
   66      194.379       816.11
   67       194.86      816.205
   68      195.341      816.299
   69      195.822      816.357
   70      196.303      816.398
   71      196.784      816.467
   72      197.265      816.547
   73      197.746      816.618
   74      198.226      816.692
   75      198.707      816.767
   76      199.188      816.802
   77      199.668      816.825
   78      200.149      816.888
   79      200.629      816.978
   80       201.11      817.064
   81       201.59       817.15
   82       202.07      817.239
   83       202.55      817.335
   84      203.031       817.43
   85      203.511      817.494
   86      203.991      817.553
   87      204.471      817.611
   88      204.951      817.662
   89      205.431      817.727
   90       205.91      817.793
   91       206.39       817.85
   92       206.87      817.881
   93      207.349      817.916
   94      207.829      817.948
   95      208.309      817.968
   96      208.788      818.003
   97      209.267      818.042
   98      209.747      818.082
   99      210.226      818.133
  100      210.705      818.186
  101      211.185      818.239
  102      211.664      818.288
  103      212.143      818.364
  104      212.622      818.456
  105      213.101      818.535
  106      213.579      818.606
  107      214.058      818.675
  108      214.537       818.72
  109      215.016       818.75
  110      215.494      818.797
  111      215.973      818.873
  112      216.452      818.962
  113       216.93      819.053
  114      217.408      819.134
  115      217.887      819.216
  116      218.365      819.281
  117      218.843      819.347
  118      219.321      819.413
  119      219.799      819.487
  120      220.278      819.556
  121      220.755      819.643
  122      221.233      819.742
  123      221.711      819.832
  124      222.189      819.908
  125      222.667      819.975
  126      223.144      820.047
  127      223.622      820.095
  128        224.1      820.117
  129      224.577      820.135
  130      225.055      820.144
  131      225.532      820.162
  132      226.009      820.212
  133      226.486       820.26
  134      226.964      820.314
  135      227.441      820.382
  136      227.918      820.441
  137      228.395      820.495
  138      228.872      820.571
  139      229.349      820.659
  140      229.826      820.717
  141      230.302      820.753
  142      230.779      820.793
  143      231.256      820.834
  144      231.732      820.876
  145      232.209      820.934
  146      232.685      820.997
  147      233.162      821.051
  148      233.638      821.105
  149      234.114      821.188
  150       234.59      821.265
  151      235.066      821.334
  152      235.543      821.402
  153      236.019      821.454
  154      236.495      821.487
  155       236.97      821.526
  156      237.446      821.566
  157      237.922      821.604
  158      238.398       821.65
  159      238.873      821.689
  160      239.349      821.737
  161      239.824      821.802
  162        240.3      821.847
  163      240.775      821.882
  164      241.251      821.937
  165      241.726      821.994
  166      242.201      822.051
  167      242.676      822.118
  168      243.151      822.185
  169      243.626      822.246
  170      244.101       822.33
  171      244.576      822.427
  172      245.051      822.493
  173      245.526      822.536
  174          246      822.584
  175      246.475      822.631
  176       246.95      822.691
  177      247.424      822.758
  178      247.899      822.803
  179      248.373      822.817
  180      248.847      822.824
  181      249.321      822.861
  182      249.796      822.911
  183       250.27      822.984
  184      250.744      823.083
  185      251.218      823.182
  186      251.692      823.262
  187      252.166      823.328
  188      252.639      823.377
  189      253.113      823.402
  190      253.587      823.417
  191       254.06      823.456
  192      254.534      823.528
  193      255.007      823.623
  194      255.481      823.714
  195      255.954      823.798
  196      256.427      823.892
  197      256.901      823.984
  198      257.374      824.069
  199      257.847       824.17
  200       258.32      824.268
  201      258.793      824.358
  202      259.266      824.455
  203      259.739      824.565
  204      260.211      824.659
  205      260.684      824.731
  206      261.157       824.81
  207      261.629      824.891
  208      262.102      824.965
  209      262.574      825.042
  210      263.046      825.111
  211      263.519      825.181
  212      263.991      825.262
  213      264.463      825.337
  214      264.935      825.413
  215      265.407      825.515
  216      265.879      825.613
  217      266.351        825.7
  218      266.823       825.77
  219      267.295      825.845
  220      267.766      825.923
  221      268.238      826.027
  222       268.71      826.143
  223      269.181      826.238
  224      269.653       826.32
  225      270.124      826.406
  226      270.595      826.494
  227      271.066      826.592
  228      271.538      826.706
  229      272.009      826.851
  230       272.48      827.035
  231      272.951      827.216
  232      273.422      827.379
  233      273.892      827.523
  234      274.363      827.664
  235      274.834        827.8
  236      275.305       827.93
  237      275.775      828.063
  238      276.246      828.205
  239      276.716      828.349
  240      277.186      828.484
  241      277.657      828.619
  242      278.127      828.755
  243      278.597       828.92
  244      279.067      829.119
  245      279.537      829.318
  246      280.007      829.478
  247      280.477      829.608
  248      280.947      829.756
  249      281.417      829.915
  250      281.886      830.049
  251      282.356      830.173
  252      282.825      830.307
  253      283.295      830.455
  254      283.764      830.605
  255      284.234      830.768
  256      284.703      830.933
  257      285.172      831.088
  258      285.641      831.249
  259       286.11      831.413
  260      286.579       831.58
  261      287.048      831.734
  262      287.517      831.869
  263      287.986      832.017
  264      288.454      832.178
  265      288.923       832.33
  266      289.392      832.505
  267       289.86      832.698
  268      290.329      832.881
  269      290.797      833.063
  270      291.265      833.249
  271      291.734       833.42
  272      292.202      833.589
  273       292.67      833.778
  274      293.138      833.968
  275      293.606      834.152
  276      294.074       834.34
  277      294.541      834.535
  278      295.009      834.746
  279      295.477      834.996
  280      295.944      835.268
  281      296.412      835.527
  282      296.879      835.768
  283      297.347      836.016
  284      297.814      836.254
  285      298.281      836.467
  286      298.749       836.69
  287      299.216       836.98
  288      299.683      837.289
  289       300.15      837.595
  290      300.616       837.91
  291      301.083      838.221
  292       301.55      838.527
  293      302.017      838.833
  294      302.483       839.12
  295       302.95        839.4
  296      303.416      839.704
  297      303.883      840.037
  298      304.349      840.379
  299      304.815      840.704
  300      305.281      841.019
  301      305.748      841.353
  302      306.214      841.693
  303       306.68      842.026
  304      307.146      842.369
  305      307.611      842.728
  306      308.077      843.102
  307      308.543      843.465
  308      309.008      843.836
  309      309.474       844.21
  310      309.939      844.612
  311      310.405      845.069
  312       310.87      845.542
  313      311.335      846.018
  314        311.8       846.51
  315      312.266      847.001
  316      312.731      847.466
  317      313.196      847.929
  318       313.66      848.401
  319      314.125      848.884
  320       314.59      849.355
  321      315.055      849.821
  322      315.519      850.282
  323      315.984      850.766
  324      316.448      851.294
  325      316.913      851.857
  326      317.377      852.427
  327      317.841      852.995
  328      318.305      853.543
  329      318.769      854.097
  330      319.233      854.644
  331      319.697      855.179
  332      320.161       855.77
  333      320.625      856.397
  334      321.089      857.034
  335      321.552      857.695
  336      322.016       858.36
  337      322.479      859.013
  338      322.943      859.668
  339      323.406      860.355
  340      323.869      861.075
  341      324.333      861.831
  342      324.796      862.602
  343      325.259      863.406
  344      325.722      864.219
  345      326.185      865.026
  346      326.647      865.858
  347       327.11      866.752
  348      327.573      867.716
  349      328.035      868.741
  350      328.498      869.816
  351       328.96      870.951
  352      329.423      872.144
  353      329.885      873.374
  354      330.347      874.659
  355       330.81      876.033
  356      331.272      877.504
  357      331.734      879.086
  358      332.196        880.8
  359      332.657      882.647
  360      333.119       884.64
  361      333.581      886.806
  362      334.043       889.15
  363      334.504        891.7
  364      334.966      894.457
  365      335.427      897.443
  366      335.888      900.741
  367       336.35      904.386
  368      336.811      908.504
  369      337.272      913.243
  370      337.733      918.737
  371      338.194      925.163
  372      338.655      932.709
  373      339.115      941.522
  374      339.576      951.815
  375      340.037      963.936
  376      340.497        978.3
  377      340.958      995.324
  378      341.418       1015.4
  379      341.879      1039.18
  380      342.339      1067.27
  381      342.799      1100.41
  382      343.259      1139.58
  383      343.719      1185.99
  384      344.179      1241.21
  385      344.639      1306.74
  386      345.099      1384.07
  387      345.559      1475.03
  388      346.018      1582.06
  389      346.478      1706.89
  390      346.937      1851.89
  391      347.397      2005.63
  392      347.856      2159.38
  393      348.315      2313.12
  394      348.774      2466.85
  395      349.234      2620.57
  396      349.693      2774.29
  397      350.152      2927.99
  398       350.61      3081.65
  399      351.069      3235.31
  400      351.528      3388.98
  401      351.987      3542.65
  402      352.445       3696.3
  403      352.904      3849.96
  404      353.362      4003.61
  405       353.82      4157.25
  406      354.279      4310.88
  407      354.737      4464.49
  408      355.195      4618.11
  409      355.653      4771.72
  410      356.111      4925.34
  411      356.569      5078.94
  412      357.027      5232.49
  413      357.484      5386.02
  414      357.942      5539.54
  415      358.399      5693.03
  416      358.857      5846.53
  417      359.314      6000.04
  418      359.772      6153.55
  419      360.229      6307.04
  420      360.686      6460.53
  421      361.143      6614.02
  422        361.6      6767.52
  423      362.057         6921
  424      362.514      7074.46
  425      362.971      7227.89
  426      363.427      7381.29
  427      363.884      7534.69
  428       364.34      7688.09
  429      364.797       7841.5
  430      365.253      7994.41
  431      365.709      8137.95
  432      366.166      8271.88
  433      366.622      8396.77
  434      367.078      8513.69
  435      367.534      8623.03
  436       367.99      8724.42
  437      368.445      8818.94
  438      368.901      8907.57
  439      369.357      8990.57
  440      369.812      9068.16
  441      370.268      9140.77
  442      370.723       9209.3
  443      371.179      9274.53
  444      371.634      9336.57
  445      372.089      9395.21
  446      372.544      9450.58
  447      372.999      9502.88
  448      373.454      9552.01
  449      373.909      9598.18
  450      374.364      9641.39
  451      374.818      9681.77
  452      375.273      9719.47
  453      375.727      9754.33
  454      376.182      9786.45
  455      376.636      9816.02
  456       377.09      9843.27
  457      377.545      9868.38
  458      377.999      9891.22
  459      378.453      9911.94
  460      378.907       9930.9
  461      379.361      9948.27
  462      379.814      9964.07
  463      380.268      9978.42
  464      380.722       9991.5
  465      381.175      10003.4
  466      381.629      10014.1
  467      382.082      10023.6
  468      382.535      10031.9
  469      382.989        10039
  470      383.442        10045
  471      383.895      10049.6
  472      384.348      10052.7
  473      384.801      10054.1
  474      385.253      10053.8
  475      385.706      10051.4
  476      386.159      10046.7
  477      386.611      10039.2
  478      387.064      10028.7
  479      387.516      10014.8
  480      387.968      9996.78
  481      388.421      9974.12
  482      388.873      9946.01
  483      389.325      9911.56
  484      389.777      9869.53
  485      390.229      9818.39
  486      390.681      9756.72
  487      391.132      9683.02
  488      391.584      9595.45
  489      392.035      9491.52
  490      392.487      9369.56
  491      392.938      9227.26
  492       393.39      9076.07
  493      393.841      8924.71
  494      394.292      8773.19
  495      394.743      8621.56
  496      395.194      8469.81
  497      395.645      8317.96
  498      396.096      8166.02
  499      396.546      8014.01
  500      396.997      7861.92
  501      397.448      7709.74
  502      397.898      7557.46
  503      398.349      7405.12
  504      398.799      7252.76
  505      399.249      7100.36
  506      399.699      6947.92
  507      400.149      6795.42
  508      400.599      6642.83
  509      401.049       6490.2
  510      401.499      6337.53
  511      401.949       6184.8
  512      402.398      6031.99
  513      402.848      5879.15
  514      403.297      5726.27
  515      403.747      5573.33
  516      404.196      5420.38
  517      404.645      5267.39
  518      405.094      5114.38
  519      405.543      4961.34
  520      405.992      4808.28
  521      406.441      4655.17
  522       406.89      4502.03
  523      407.339      4348.89
  524      407.787      4195.75
  525      408.236      4042.55
  526      408.684      3889.35
  527      409.132      3736.14
  528      409.581      3582.91
  529      410.029      3429.65
  530      410.477      3276.35
  531      410.925       3123.5
  532      411.373         2980
  533      411.821      2846.08
  534      412.269      2721.14
  535      412.716       2604.1
  536      413.164       2494.6
  537      413.611      2393.02
  538      414.059      2298.32
  539      414.506      2209.51
  540      414.953       2126.3
  541        415.4      2048.46
  542      415.847      1975.55
  543      416.294      1906.68
  544      416.741       1841.1
  545      417.188      1778.66
  546      417.635      1719.59
  547      418.081      1663.73
  548      418.528      1610.91
  549      418.974      1561.22
  550      419.421      1514.43
  551      419.867      1470.55
  552      420.313      1429.43
  553      420.759      1390.93
  554      421.205      1355.19
  555      421.651      1322.11
  556      422.097       1291.5
  557      422.543      1263.11
  558      422.989      1236.74
  559      423.434      1212.52
  560       423.88      1190.31
  561      424.325      1169.71
  562       424.77      1150.55
  563      425.216       1132.8
  564      425.661      1116.32
  565      426.106      1100.92
  566      426.551      1086.49
  567      426.996      1072.94
  568       427.44      1060.36
  569      427.885       1048.6
  570       428.33      1037.48
  571      428.774      1026.92
  572      429.219      1016.93
  573      429.663      1007.52
  574      430.107      998.689
  575      430.551      990.366
  576      430.996      982.523
  577       431.44      975.249
  578      431.883      968.481
  579      432.327      962.105
  580      432.771      956.064
  581      433.215      950.334
  582      433.658      944.936
  583      434.102      939.915
  584      434.545      935.214
  585      434.988      930.845
  586      435.431      926.773
  587      435.875      922.918
  588      436.318      919.271
  589      436.761      915.868
  590      437.203      912.715
  591      437.646      909.792
  592      438.089      907.052
  593      438.531       904.48
  594      438.974      902.084
  595      439.416      899.846
  596      439.859      897.722
  597      440.301      895.704
  598      440.743      893.783
  599      441.185      891.967
  600      441.627      890.221
  601      442.069      888.544
  602       442.51      886.971
  603      442.952      885.491
  604      443.394      884.048
  605      443.835      882.623
  606      444.277      881.237
  607      444.718      879.894
  608      445.159       878.61
  609        445.6      877.421
  610      446.041      876.293
  611      446.482      875.196
  612      446.923      874.161
  613      447.364      873.193
  614      447.804      872.256
  615      448.245      871.371
  616      448.685       870.55
  617      449.126      869.752
  618      449.566      868.985
  619      450.006      868.243
  620      450.447      867.513
  621      450.887      866.786
  622      451.326      866.103
  623      451.766      865.473
  624      452.206      864.835
  625      452.646      864.205
  626      453.085      863.619
  627      453.525      863.051
  628      453.964      862.486
  629      454.403      861.945
  630      454.843      861.444
  631      455.282      861.005
  632      455.721       860.59
  633       456.16      860.179
  634      456.599      859.781
  635      457.037      859.407
  636      457.476      859.083
  637      457.915      858.826
  638      458.353      858.589
  639      458.791       858.36
  640       459.23      858.149
  641      459.668      857.941
  642      460.106      857.734
  643      460.544      857.541
  644      460.982      857.357
  645       461.42      857.171
  646      461.857      856.988
  647      462.295      856.832
  648      462.733      856.709
  649       463.17      856.591
  650      463.607      856.478
  651      464.045      856.388
  652      464.482        856.3
  653      464.919      856.231
  654      465.356      856.189
  655      465.793      856.179
  656       466.23        856.2
  657      466.666      856.239
  658      467.103        856.3
  659      467.539      856.385
  660      467.976      856.471
  661      468.412      856.542
  662      468.848      856.618
  663      469.284      856.708
  664       469.72      856.801
  665      470.156      856.904
  666      470.592      856.999
  667      471.028      857.108
  668      471.464      857.249
  669      471.899      857.397
  670      472.335       857.57
  671       472.77      857.769
  672      473.205       857.98
  673      473.641      858.224
  674      474.076      858.465
  675      474.511      858.698
  676      474.946      858.959
  677       475.38      859.225
  678      475.815      859.484
  679       476.25      859.746
  680      476.684      860.025
  681      477.119      860.332
  682      477.553      860.642
  683      477.987      860.975
  684      478.421      861.321
  685      478.856      861.685
  686      479.289      862.059
  687      479.723       862.44
  688      480.157      862.833
  689      480.591      863.232
  690      481.024      863.634
  691      481.458      864.027
  692      481.891      864.411
  693      482.324        864.8
  694      482.758      865.204
  695      483.191      865.631
  696      483.624      866.043
  697      484.057      866.443
  698      484.489      866.856
  699      484.922      867.282
  700      485.355      867.705
  701      485.787      868.135
  702       486.22      868.591
  703      486.652      869.069
  704      487.084      869.547
  705      487.516      870.029
  706      487.948      870.517
  707       488.38      871.021
  708      488.812      871.549
  709      489.244      872.101
  710      489.676      872.629
  711      490.107      873.137
  712      490.539      873.652
  713       490.97      874.189
  714      491.401      874.757
  715      491.832      875.357
  716      492.263      875.929
  717      492.694      876.495
  718      493.125      877.077
  719      493.556      877.657
  720      493.987      878.248
  721      494.417      878.869
  722      494.848      879.537
  723      495.278      880.214
  724      495.708       880.85
  725      496.139      881.491
  726      496.569      882.143
  727      496.999      882.785
  728      497.429      883.426
  729      497.858      884.081
  730      498.288      884.738
  731      498.718      885.388
  732      499.147      886.021
  733      499.577       886.67
  734      500.006      887.347
  735      500.435       888.03
  736      500.864      888.715
  737      501.293       889.39
  738      501.722      890.054
  739      502.151      890.727
  740       502.58        891.4
  741      503.008      892.067
  742      503.437      892.754
  743      503.865      893.465
  744      504.293      894.161
  745      504.722      894.844
  746       505.15      895.543
  747      505.578      896.261
  748      506.006      896.982
  749      506.434      897.701
  750      506.861      898.441
  751      507.289      899.183
  752      507.716      899.901
  753      508.144      900.599
  754      508.571       901.27
  755      508.998      901.946
  756      509.425      902.631
  757      509.852      903.329
  758      510.279      904.028
  759      510.706      904.703
  760      511.133      905.385
  761       511.56      906.082
  762      511.986      906.792
  763      512.412      907.481
  764      512.839      908.167
  765      513.265      908.857
  766      513.691      909.542
  767      514.117      910.232
  768      514.543      910.929
  769      514.969      911.645
  770      515.395      912.329
  771       515.82      912.988
  772      516.246       913.64
  773      516.671      914.266
  774      517.096      914.868
  775      517.522      915.491
  776      517.947      916.122
  777      518.372      916.731
  778      518.797      917.334
  779      519.222      917.941
  780      519.646      918.525
  781      520.071      919.082
  782      520.495      919.625
  783       520.92      920.195
  784      521.344       920.76
  785      521.768      921.318
  786      522.192      921.859
  787      522.616      922.383
  788       523.04      922.902
  789      523.464      923.404
  790      523.888      923.901
  791      524.311      924.402
  792      524.735      924.896
  793      525.158      925.379
  794      525.581      925.861
  795      526.005      926.337
  796      526.428      926.805
  797      526.851      927.296
  798      527.274      927.821
  799      527.696      928.338
  800      528.119      928.846
  801      528.542      929.368
  802      528.964      929.894
  803      529.386      930.401
  804      529.809       930.87
  805      530.231       931.33
  806      530.653      931.802
  807      531.075      932.275
  808      531.497      932.726
  809      531.918      933.173
  810       532.34      933.609
  811      532.761      934.076
  812      533.183      934.587
  813      533.604      935.109
  814      534.025      935.633
  815      534.447      936.139
  816      534.868      936.613
  817      535.289      937.086
  818      535.709      937.559
  819       536.13       938.02
  820      536.551      938.476
  821      536.971      938.927
  822      537.392      939.371
  823      537.812      939.809
  824      538.232      940.265
  825      538.652      940.741
  826      539.072      941.192
  827      539.492      941.651
  828      539.912      942.131
  829      540.331      942.594
  830      540.751      943.043
  831       541.17      943.484
  832       541.59      943.922
  833      542.009      944.379
  834      542.428      944.805
  835      542.847      945.189
  836      543.266      945.575
  837      543.685      945.989
  838      544.104      946.398
  839      544.522      946.772
  840      544.941      947.108
  841      545.359      947.412
  842      545.778      947.696
  843      546.196      947.942
  844      546.614      948.164
  845      547.032      948.389
  846       547.45      948.624
  847      547.867      948.836
  848      548.285      949.033
  849      548.703      949.227
  850       549.12      949.402
  851      549.538      949.548
  852      549.955      949.671
  853      550.372      949.817
  854      550.789      949.972
  855      551.206      950.124
  856      551.623      950.264
  857      552.039      950.391
  858      552.456      950.509
  859      552.873      950.622
  860      553.289      950.744
  861      553.705      950.851
  862      554.121      950.927
  863      554.537      951.005
  864      554.953      951.109
  865      555.369      951.205
  866      555.785      951.289
  867      556.201      951.373
  868      556.616      951.448
  869      557.032      951.488
  870      557.447      951.472
  871      557.862      951.469
  872      558.277      951.479
  873      558.692      951.478
  874      559.107      951.504
  875      559.522      951.544
  876      559.937      951.545
  877      560.351      951.525
  878      560.766      951.515
  879       561.18      951.508
  880      561.595      951.521
  881      562.009      951.566
  882      562.423      951.583
  883      562.837      951.561
  884       563.25      951.501
  885      563.664      951.417
  886      564.078      951.312
  887      564.491      951.222
  888      564.905      951.142
  889      565.318      951.027
  890      565.731      950.892
  891      566.144      950.767
  892      566.557      950.643
  893       566.97      950.511
  894      567.383      950.375
  895      567.795      950.236
  896      568.208      950.068
  897       568.62      949.864
  898      569.033      949.643
  899      569.445      949.427
  900      569.857      949.207
  901      570.269      948.964
  902      570.681       948.68
  903      571.093      948.383
  904      571.504      948.131
  905      571.916      947.917
  906      572.327      947.654
  907      572.739       947.34
  908       573.15       947.02
  909      573.561      946.703
  910      573.972      946.377
  911      574.383       946.04
  912      574.794      945.659
  913      575.204      945.239
  914      575.615      944.796
  915      576.025       944.32
  916      576.436      943.811
  917      576.846      943.311
  918      577.256       942.83
  919      577.666      942.338
  920      578.076      941.839
  921      578.486      941.344
  922      578.896       940.82
  923      579.305      940.279
  924      579.715      939.718
  925      580.124      939.106
  926      580.533      938.468
  927      580.942      937.851
  928      581.351      937.228
  929       581.76      936.604
  930      582.169      935.967
  931      582.578      935.309
  932      582.986       934.65
  933      583.395      933.993
  934      583.803      933.317
  935      584.212      932.667
  936       584.62      932.047
  937      585.028      931.394
  938      585.436      930.689
  939      585.843      929.989
  940      586.251      929.293
  941      586.659      928.589
  942      587.066      927.889
  943      587.474      927.208
  944      587.881       926.58
  945      588.288      925.969
  946      588.695      925.347
  947      589.102      924.724
  948      589.509       924.13
  949      589.915      923.533
  950      590.322      922.921
  951      590.728      922.317
  952      591.135      921.715
  953      591.541      921.113
  954      591.947      920.484
  955      592.353      919.853
  956      592.759      919.216
  957      593.165      918.577
  958      593.571      917.921
  959      593.976      917.231
  960      594.382      916.533
  961      594.787      915.829
  962      595.192      915.175
  963      595.597      914.586
  964      596.002      913.955
  965      596.407      913.276
  966      596.812       912.58
  967      597.217      911.889
  968      597.621       911.19
  969      598.026      910.488
  970       598.43      909.799
  971      598.834      909.115
  972      599.238      908.433
  973      599.642       907.75
  974      600.046      907.081
  975       600.45      906.416
  976      600.854      905.726
  977      601.257      905.026
  978      601.661      904.324
  979      602.064      903.622
  980      602.467      902.919
  981       602.87      902.186
  982      603.273       901.44
  983      603.676       900.75
  984      604.079      900.081
  985      604.481      899.426
  986      604.884      898.794
  987      605.286      898.172
  988      605.689      897.537
  989      606.091      896.886
  990      606.493      896.259
  991      606.895      895.672
  992      607.297      895.072
  993      607.698      894.458
  994        608.1      893.858
  995      608.501      893.269
  996      608.903      892.674
  997      609.304      892.105
  998      609.705      891.553
  999      610.106       890.99
 1000      610.507      890.396
 1001      610.908      889.814
 1002      611.308       889.27
 1003      611.709      888.726
 1004      612.109      888.146
 1005       612.51      887.523
 1006       612.91      886.889
 1007       613.31      886.316
 1008       613.71      885.798
 1009       614.11      885.288
 1010       614.51      884.771
 1011      614.909      884.224
 1012      615.309      883.658
 1013      615.708      883.118
 1014      616.108       882.59
 1015      616.507      882.066
 1016      616.906      881.558
 1017      617.305      881.053
 1018      617.704      880.545
 1019      618.102      880.042
 1020      618.501      879.548
 1021      618.899      879.047
 1022      619.298      878.529
 1023      619.696      878.019
 1024      620.094      877.517
 1025      620.492      877.016
 1026       620.89       876.54
 1027      621.288      876.083
 1028      621.686       875.61
 1029      622.083      875.136
 1030       622.48      874.662
 1031      622.878       874.21
 1032      623.275      873.772
 1033      623.672       873.35
 1034      624.069      872.919
 1035      624.466      872.468
 1036      624.863      872.012
 1037      625.259      871.576
 1038      625.656      871.154
 1039      626.052      870.733
 1040      626.448      870.294
 1041      626.844      869.872
 1042      627.241      869.485
 1043      627.636      869.117
 1044      628.032      868.741
 1045      628.428      868.328
 1046      628.823      867.916
 1047      629.219      867.526
 1048      629.614      867.126
 1049      630.009      866.721
 1050      630.404      866.325
 1051      630.799      865.915
 1052      631.194      865.499
 1053      631.589      865.089
 1054      631.984       864.67
 1055      632.378      864.258
 1056      632.772      863.857
 1057      633.167      863.466
 1058      633.561      863.061
 1059      633.955      862.658
 1060      634.349      862.264
 1061      634.743       861.87
 1062      635.136      861.498
 1063       635.53      861.082
 1064      635.923      860.611
 1065      636.316      860.202
 1066       636.71      859.829
 1067      637.103      859.477
 1068      637.496      859.118
 1069      637.888      858.767
 1070      638.281      858.425
 1071      638.674      858.097
 1072      639.066      857.794
 1073      639.459      857.495
 1074      639.851      857.177
 1075      640.243      856.826
 1076      640.635      856.455
 1077      641.027      856.099
 1078      641.419       855.78
 1079       641.81      855.479
 1080      642.202      855.167
 1081      642.593      854.847
 1082      642.984      854.536
 1083      643.375       854.21
 1084      643.766      853.843
 1085      644.157      853.473
 1086      644.548      853.112
 1087      644.939      852.746
 1088      645.329      852.378
 1089       645.72      852.019
 1090       646.11      851.675
 1091        646.5      851.337
 1092       646.89      851.006
 1093       647.28      850.687
 1094       647.67      850.368
 1095       648.06      850.041
 1096      648.449      849.704
 1097      648.839       849.37
 1098      649.228      849.025
 1099      649.617      848.669
 1100      650.007      848.321
 1101      650.396      847.996
 1102      650.784      847.678
 1103      651.173      847.342
 1104      651.562       847.02
 1105       651.95      846.749
 1106      652.339      846.489
 1107      652.727      846.213
 1108      653.115      845.918
 1109      653.503      845.617
 1110      653.891      845.317
 1111      654.279      845.028
 1112      654.666      844.762
 1113      655.054       844.53
 1114      655.441      844.285
 1115      655.828      844.009
 1116      656.216      843.715
 1117      656.603      843.408
 1118      656.989      843.115
 1119      657.376       842.83
 1120      657.763      842.535
 1121      658.149      842.237
 1122      658.536      841.941
 1123      658.922       841.65
 1124      659.308      841.388
 1125      659.694      841.138
 1126       660.08      840.879
 1127      660.466      840.626
 1128      660.852      840.394
 1129      661.237      840.174
 1130      661.623      839.968
 1131      662.008      839.743
 1132      662.393       839.48
 1133      662.778      839.222
 1134      663.163      838.967
 1135      663.548      838.724
 1136      663.933      838.486
 1137      664.317       838.25
 1138      664.702      837.997
 1139      665.086      837.736
 1140       665.47      837.512
 1141      665.854      837.316
 1142      666.238      837.088
 1143      666.622      836.855
 1144      667.006      836.635
 1145      667.389      836.422
 1146      667.773      836.211
 1147      668.156       835.98
 1148      668.539       835.73
 1149      668.923      835.498
 1150      669.305      835.263
 1151      669.688      835.028
 1152      670.071      834.804
 1153      670.454      834.582
 1154      670.836      834.363
 1155      671.218      834.156
 1156      671.601       833.94
 1157      671.983      833.725
 1158      672.365      833.558
 1159      672.747      833.427
 1160      673.128      833.278
 1161       673.51      833.115
 1162      673.891      832.952
 1163      674.273      832.805
 1164      674.654      832.678
 1165      675.035       832.55
 1166      675.416      832.368
 1167      675.797      832.174
 1168      676.177      831.985
 1169      676.558       831.81
 1170      676.938      831.617
 1171      677.319      831.425
 1172      677.699      831.214
 1173      678.079      830.994
 1174      678.459      830.773
 1175      678.839      830.563
 1176      679.219       830.37
 1177      679.598      830.178
 1178      679.978      829.977
 1179      680.357      829.762
 1180      680.736       829.54
 1181      681.115      829.347
 1182      681.494      829.189
 1183      681.873      829.015
 1184      682.252      828.826
 1185       682.63      828.665
 1186      683.009      828.527
 1187      683.387      828.393
 1188      683.765      828.247
 1189      684.143      828.107
 1190      684.521      827.963
 1191      684.899      827.829
 1192      685.277      827.685
 1193      685.654      827.496
 1194      686.032      827.294
 1195      686.409      827.124
 1196      686.786      826.977
 1197      687.163      826.833
 1198       687.54      826.687
 1199      687.917      826.526
 1200      688.294      826.371
 1201       688.67      826.228
 1202      689.046      826.079
 1203      689.423      825.931
 1204      689.799      825.789
 1205      690.175      825.633
 1206      690.551      825.457
 1207      690.927      825.255
 1208      691.302      825.053
 1209      691.678      824.871
 1210      692.053      824.691
 1211      692.428      824.523
 1212      692.804      824.373
 1213      693.179      824.228
 1214      693.553      824.056
 1215      693.928      823.876
 1216      694.303      823.707
 1217      694.677      823.574
 1218      695.052      823.456
 1219      695.426      823.346
 1220        695.8      823.242
 1221      696.174       823.12
 1222      696.548      822.987
 1223      696.921      822.867
 1224      697.295      822.753
 1225      697.669      822.634
 1226      698.042      822.485
 1227      698.415      822.328
 1228      698.788      822.203
 1229      699.161      822.062
 1230      699.534        821.9
 1231      699.907      821.721
 1232      700.279      821.558
 1233      700.652      821.433
 1234      701.024      821.308
 1235      701.396      821.151
 1236      701.768      820.998
 1237       702.14      820.875
 1238      702.512      820.738
 1239      702.883      820.603
 1240      703.255      820.477
 1241      703.626      820.326
 1242      703.998      820.145
 1243      704.369      819.997
 1244       704.74      819.864
 1245      705.111      819.718
 1246      705.481      819.581
 1247      705.852      819.451
 1248      706.222       819.32
 1249      706.593        819.2
 1250      706.963      819.076
 1251      707.333      818.949
 1252      707.703      818.802
 1253      708.073      818.656
 1254      708.442      818.611
 1255      708.812      818.644
 1256      709.181      818.616
 1257      709.551      818.557
 1258       709.92      818.463
 1259      710.289      818.314
 1260      710.658      818.131
 1261      711.027      817.966
 1262      711.395      817.839
 1263      711.764      817.733
 1264      712.132      817.603
 1265        712.5      817.446
 1266      712.869      817.279
 1267      713.236      817.141
 1268      713.604      817.018
 1269      713.972        816.9
 1270       714.34      816.764
 1271      714.707      816.622
 1272      715.074      816.486
 1273      715.442      816.368
 1274      715.809      816.248
 1275      716.176       816.14
 1276      716.542      816.031
 1277      716.909      815.908
 1278      717.276      815.789
 1279      717.642      815.681
 1280      718.008      815.582
 1281      718.374      815.492
 1282       718.74      815.395
 1283      719.106      815.276
 1284      719.472      815.149
 1285      719.838       815.04
 1286      720.203      814.931
 1287      720.568      814.824
 1288      720.934      814.714
 1289      721.299      814.609
 1290      721.664      814.502
 1291      722.029      814.411
 1292      722.393      814.318
 1293      722.758      814.233
 1294      723.122      814.182
 1295      723.486      814.147
 1296      723.851      814.105
 1297      724.215      814.044
 1298      724.578      813.969
 1299      724.942      813.892
 1300      725.306      813.835
 1301      725.669      813.787
 1302      726.033      813.734
 1303      726.396      813.673
 1304      726.759      813.588
 1305      727.122      813.519
 1306      727.485      813.459
 1307      727.847      813.395
 1308       728.21      813.341
 1309      728.572      813.292
 1310      728.935      813.253
 1311      729.297      813.214
 1312      729.659      813.146
 1313      730.021      813.039
 1314      730.382      812.917
 1315      730.744      812.819
 1316      731.105      812.751
 1317      731.467      812.687
 1318      731.828      812.641
 1319      732.189      812.628
 1320       732.55      812.596
 1321      732.911       812.54
 1322      733.271      812.483
 1323      733.632      812.425
 1324      733.992      812.362
 1325      734.352      812.306
 1326      734.713       812.24
 1327      735.072      812.198
 1328      735.432      812.164
 1329      735.792      812.111
 1330      736.152       812.07
 1331      736.511      812.041
 1332       736.87      811.997
 1333      737.229      811.926
 1334      737.589      811.851
 1335      737.947      811.779
 1336      738.306      811.721
 1337      738.665      811.671
 1338      739.023      811.612
 1339      739.382      811.565
 1340       739.74       811.52
 1341      740.098      811.494
 1342      740.456      811.476
 1343      740.814      811.465
 1344      741.171      811.427
 1345      741.529      811.362
 1346      741.886      811.302
 1347      742.244      811.264
 1348      742.601      811.213
 1349      742.958      811.151
 1350      743.314      811.088
 1351      743.671       811.03
 1352      744.028      810.981
 1353      744.384      810.933
 1354       744.74      810.874
 1355      745.097      810.714
 1356      745.453       810.49
 1357      745.809      810.329
 1358      746.164      810.204
 1359       746.52      810.111
 1360      746.875      810.028
 1361      747.231      809.956
 1362      747.586      809.896
 1363      747.941      809.822
 1364      748.296      809.728
 1365      748.651      809.632
 1366      749.005      809.562
 1367       749.36      809.519
 1368      749.714      809.473
 1369      750.069      809.426
 1370      750.423      809.377
 1371      750.777      809.334
 1372       751.13      809.285
 1373      751.484      809.224
 1374      751.838      809.163
 1375      752.191      809.127
 1376      752.544      809.091
 1377      752.897      809.052
 1378       753.25      809.016
 1379      753.603      808.983
 1380      753.956      808.957
 1381      754.309      808.928
 1382      754.661      808.874
 1383      755.013       808.81
 1384      755.365      808.768
 1385      755.717      808.736
 1386      756.069      808.707
 1387      756.421      808.687
 1388      756.773      808.663
 1389      757.124      808.624
 1390      757.476      808.591
 1391      757.827      808.563
 1392      758.178       808.51
 1393      758.529       808.46
 1394      758.879       808.41
 1395       759.23      808.347
 1396      759.581       808.28
 1397      759.931      808.211
 1398      760.281      808.157
 1399      760.631      808.111
 1400      760.981      808.084
 1401      761.331      808.085
 1402      761.681      808.079
 1403       762.03      808.062
 1404      762.379      808.028
 1405      762.729      807.982
 1406      763.078      807.904
 1407      763.427      807.839
 1408      763.776      807.802
 1409      764.124      807.759
 1410      764.473      807.705
 1411      764.821      807.623
 1412      765.169      807.533
 1413      765.517      807.464
 1414      765.865      807.413
 1415      766.213      807.385
 1416      766.561      807.362
 1417      766.909      807.322
 1418      767.256      807.275
 1419      767.603      807.191
 1420       767.95      807.072
 1421      768.297      806.967
 1422      768.644      806.878
 1423      768.991       806.81
 1424      769.337      806.741
 1425      769.684      806.678
 1426       770.03      806.613
 1427      770.376      806.553
 1428      770.722      806.501
 1429      771.068      806.454
 1430      771.414      806.404
 1431      771.759      806.344
 1432      772.105      806.288
 1433       772.45      806.257
 1434      772.795      806.246
 1435       773.14      806.229
 1436      773.485        806.2
 1437       773.83      806.174
 1438      774.174      806.134
 1439      774.519      806.072
 1440      774.863      805.999
 1441      775.207      805.925
 1442      775.551      805.836
 1443      775.895       805.74
 1444      776.239      805.647
 1445      776.582      805.574
 1446      776.926      805.517
 1447      777.269      805.457
 1448      777.612      805.376
 1449      777.955      805.317
 1450      778.298      805.274
 1451      778.641      805.227
 1452      778.983      805.177
 1453      779.326      805.117
 1454      779.668      805.065
 1455       780.01      805.026
 1456      780.352      804.978
 1457      780.694      804.923
 1458      781.036      804.876
 1459      781.377      804.843
 1460      781.719      804.813
 1461       782.06      804.791
 1462      782.401      804.771
 1463      782.742      804.742
 1464      783.083      804.702
 1465      783.424      804.678
 1466      783.764      804.663
 1467      784.105      804.622
 1468      784.445      804.556
 1469      784.785      804.509
 1470      785.125      804.462
 1471      785.465      804.409
 1472      785.805      804.372
 1473      786.144      804.349
 1474      786.484      804.307
 1475      786.823      804.242
 1476      787.162      804.183
 1477      787.501      804.133
 1478       787.84      804.093
 1479      788.178      804.055
 1480      788.517       804.02
 1481      788.855      803.977
 1482      789.194       803.94
 1483      789.532      803.926
 1484       789.87        803.9
 1485      790.208      803.871
 1486      790.545      803.857
 1487      790.883      803.831
 1488       791.22      803.796
 1489      791.557      803.743
 1490      791.894      803.699
 1491      792.231      803.655
 1492      792.568      803.605
 1493      792.905      803.581
 1494      793.241      803.561
 1495      793.578      803.532
 1496      793.914      803.502
 1497       794.25      803.477
 1498      794.586      803.424
 1499      794.922       803.35
 1500      795.257      803.276
 1501      795.593      803.172
 1502      795.928      803.048
 1503      796.263      802.937
 1504      796.598      802.833
 1505      796.933       802.74
 1506      797.268      802.669
 1507      797.603      802.618
 1508      797.937      802.574
 1509      798.271      802.514
 1510      798.606      802.467
 1511       798.94      802.433
 1512      799.274       802.42
 1513      799.607      802.425
 1514      799.941      802.418
 1515      800.274      802.404
 1516      800.608      802.374
 1517      800.941      802.339
 1518      801.274      802.308
 1519      801.607       802.27
 1520      801.939       802.23
 1521      802.272      802.187
 1522      802.604      802.132
 1523      802.936      802.085
 1524      803.269      802.055
 1525      803.601       802.04
 1526      803.932      802.015
 1527      804.264      801.992
 1528      804.596       801.96
 1529      804.927      801.925
 1530      805.258      801.882
 1531      805.589      801.824
 1532       805.92      801.775
 1533      806.251      801.723
 1534      806.582      801.655
 1535      806.912      801.596
 1536      807.242      801.547
 1537      807.573      801.531
 1538      807.903      801.521
 1539      808.232      801.484
 1540      808.562      801.446
 1541      808.892      801.414
 1542      809.221      801.391
 1543      809.551      801.401
 1544       809.88      801.418
 1545      810.209      801.418
 1546      810.538      801.407
 1547      810.866      801.386
 1548      811.195      801.357
 1549      811.523      801.316
 1550      811.851      801.277
 1551       812.18      801.263
 1552      812.507      801.259
 1553      812.835      801.247
 1554      813.163      801.228
 1555       813.49      801.192
 1556      813.818      801.142
 1557      814.145      801.127
 1558      814.472      801.136
 1559      814.799       801.13
 1560      815.126      801.112
 1561      815.452      801.075
 1562      815.779      801.028
 1563      816.105      800.977
 1564      816.431       800.94
 1565      816.757      800.929
 1566      817.083      800.922
 1567      817.409      800.912
 1568      817.734      800.886
 1569       818.06       800.88
 1570      818.385      800.861
 1571       818.71      800.837
 1572      819.035      800.803
 1573       819.36      800.766
 1574      819.685      800.741
 1575      820.009       800.74
 1576      820.333      800.755
 1577      820.658      800.751
 1578      820.982      800.724
 1579      821.305      800.757
 1580      821.629      800.834
 1581      821.953      800.866
 1582      822.276      800.868
 1583        822.6      800.849
 1584      822.923      800.821
 1585      823.246        800.8
 1586      823.569      800.759
 1587      823.891      800.721
 1588      824.214      800.693
 1589      824.536      800.664
 1590      824.858      800.646
 1591       825.18      800.628
 1592      825.502      800.617
 1593      825.824      800.646
 1594      826.146      800.674
 1595      826.467       800.66
 1596      826.789      800.627
 1597       827.11       800.58
 1598      827.431      800.516
 1599      827.752      800.484
 1600      828.072      800.476
 1601      828.393      800.476
 1602      828.713      800.491
 1603      829.034      800.499
 1604      829.354      800.521
 1605      829.674      800.557
 1606      829.993      800.595
 1607      830.313      800.629
 1608      830.633      800.655
 1609      830.952      800.652
 1610      831.271      800.639
 1611       831.59      800.631
 1612      831.909      800.631
 1613      832.228      800.624
 1614      832.546      800.594
 1615      832.865      800.571
 1616      833.183      800.567
 1617      833.501      800.565
 1618      833.819      800.561
 1619      834.137      800.558
 1620      834.455      800.565
 1621      834.772      800.574
 1622      835.089      800.582
 1623      835.407      800.588
 1624      835.724      800.577
 1625       836.04      800.533
 1626      836.357      800.477
 1627      836.674       800.44
 1628       836.99      800.425
 1629      837.306       800.42
 1630      837.623      800.396
 1631      837.939       800.38
 1632      838.254      800.368
 1633       838.57       800.35
 1634      838.886       800.35
 1635      839.201      800.346
 1636      839.516      800.321
 1637      839.831      800.303
 1638      840.146      800.268
 1639      840.461      800.243
 1640      840.775       800.24
 1641       841.09      800.252
 1642      841.404      800.275
 1643      841.718      800.298
 1644      842.032      800.291
 1645      842.346       800.27
 1646      842.659      800.248
 1647      842.973      800.202
 1648      843.286       800.16
 1649      843.599      800.138
 1650      843.912      800.134
 1651      844.225      800.126
 1652      844.538      800.107
 1653      844.851       800.11
 1654      845.163      800.119
 1655      845.475      800.121
 1656      845.787      800.153
 1657      846.099      800.219
 1658      846.411      800.247
 1659      846.723      800.233
 1660      847.034      800.238
 1661      847.345      800.262
 1662      847.657      800.301
 1663      847.968      800.339
 1664      848.278      800.361
 1665      848.589      800.367
 1666        848.9      800.355
 1667       849.21      800.336
 1668       849.52      800.314
 1669       849.83      800.315
 1670       850.14       800.33
 1671       850.45      800.352
 1672      850.759      800.357
 1673      851.069      800.365
 1674      851.378      800.351
 1675      851.687      800.342
 1676      851.996      800.344
 1677      852.305       800.33
 1678      852.614        800.3
 1679      852.922      800.284
 1680       853.23       800.23
 1681      853.539      800.142
 1682      853.847      800.101
 1683      854.154      800.083
 1684      854.462       800.09
 1685       854.77      800.087
 1686      855.077      800.067
 1687      855.384      800.045
 1688      855.691      800.003
 1689      855.998      799.964
 1690      856.305      799.949
 1691      856.612      799.937
 1692      856.918      799.909
 1693      857.224      799.869
 1694       857.53      799.794
 1695      857.836      799.712
 1696      858.142      799.662
 1697      858.448      799.647
 1698      858.753      799.669
 1699      859.059      799.708
 1700      859.364      799.736
 1701      859.669      799.751
 1702      859.974      799.763
 1703      860.278      799.771
 1704      860.583      799.773
 1705      860.887      799.759
 1706      861.192      799.727
 1707      861.496      799.699
 1708        861.8      799.687
 1709      862.103      799.669
 1710      862.407       799.66
 1711       862.71      799.665
 1712      863.014      799.653
 1713      863.317      799.615
 1714       863.62      799.571
 1715      863.922      799.553
 1716      864.225       799.54
 1717      864.527      799.519
 1718       864.83      799.494
 1719      865.132       799.46
 1720      865.434      799.423
 1721      865.736      799.403
 1722      866.037      799.393
 1723      866.339      799.382
 1724       866.64      799.374
 1725      866.941      799.384
 1726      867.242      799.404
 1727      867.543      799.423
 1728      867.844      799.421
 1729      868.145      799.393
 1730      868.445      799.377
 1731      868.745       799.38
 1732      869.045       799.36
 1733      869.345      799.342
 1734      869.645      799.346
 1735      869.944      799.346
 1736      870.244      799.354
 1737      870.543      799.368
 1738      870.842      799.385
 1739      871.141      799.402
 1740       871.44      799.417
 1741      871.739      799.428
 1742      872.037      799.428
 1743      872.335      799.421
 1744      872.634      799.426
 1745      872.931      799.438
 1746      873.229      799.442
 1747      873.527      799.446
 1748      873.824      799.467
 1749      874.122      799.511
 1750      874.419      799.541
 1751      874.716      799.569
 1752      875.013      799.598
 1753      875.309      799.616
 1754      875.606      799.615
 1755      875.902       799.63
 1756      876.199      799.661
 1757      876.495      799.648
 1758       876.79      799.591
 1759      877.086      799.544
 1760      877.382      799.516
 1761      877.677      799.507
 1762      877.972      799.498
 1763      878.267      799.486
 1764      878.562      799.469
 1765      878.857      799.455
 1766      879.152      799.455
 1767      879.446       799.47
 1768       879.74      799.475
 1769      880.034       799.48
 1770      880.328      799.478
 1771      880.622      799.459
 1772      880.916      799.429
 1773      881.209      799.411
 1774      881.502      799.402
 1775      881.795      799.429
 1776      882.088      799.439
 1777      882.381      799.412
 1778      882.674       799.39
 1779      882.966      799.394
 1780      883.258        799.4
 1781      883.551      799.377
 1782      883.843      799.341
 1783      884.134      799.326
 1784      884.426      799.319
 1785      884.717      799.293
 1786      885.009      799.268
 1787        885.3      799.264
 1788      885.591      799.276
 1789      885.882      799.296
 1790      886.172      799.309
 1791      886.463      799.307
 1792      886.753      799.309
 1793      887.043      799.334
 1794      887.333      799.371
 1795      887.623      799.409
 1796      887.913      799.433
 1797      888.202      799.454
 1798      888.492       799.47
 1799      888.781      799.474
 1800       889.07      799.458
 1801      889.359      799.416
 1802      889.647       799.38
 1803      889.936      799.362
 1804      890.224      799.355
 1805      890.512      799.367
 1806        890.8      799.377
 1807      891.088      799.387
 1808      891.376      799.399
 1809      891.663      799.407
 1810      891.951      799.412
 1811      892.238      799.409
 1812      892.525      799.412
 1813      892.812      799.432
 1814      893.099      799.454
 1815      893.385      799.473
 1816      893.671      799.478
 1817      893.958      799.484
 1818      894.244      799.505
 1819       894.53      799.547
 1820      894.815      799.589
 1821      895.101      799.615
 1822      895.386      799.613
 1823      895.671      799.609
 1824      895.956      799.608
 1825      896.241      799.619
 1826      896.526      799.633
 1827       896.81      799.649
 1828      897.095      799.657
 1829      897.379      799.672
 1830      897.663      799.689
 1831      897.947      799.689
 1832      898.231       799.68
 1833      898.514      799.691
 1834      898.798      799.706
 1835      899.081      799.707
 1836      899.364      799.715
 1837      899.647      799.724
 1838      899.929      799.715
 1839      900.212      799.685
 1840      900.494      799.652
 1841      900.776      799.625
 1842      901.058      799.615
 1843       901.34      799.618
 1844      901.622      799.614
 1845      901.904      799.604
 1846      902.185      799.587
 1847      902.466      799.562
 1848      902.747      799.544
 1849      903.028      799.539
 1850      903.309      799.513
 1851      903.589      799.491
 1852       903.87       799.47
 1853       904.15      799.443
 1854       904.43      799.433
 1855       904.71      799.421
 1856      904.989      799.387
 1857      905.269      799.351
 1858      905.548       799.34
 1859      905.827      799.355
 1860      906.106      799.371
 1861      906.385       799.37
 1862      906.664      799.344
 1863      906.942      799.308
 1864      907.221      799.276
 1865      907.499      799.261
 1866      907.777      799.257
 1867      908.055       799.25
 1868      908.332      799.242
 1869       908.61      799.248
 1870      908.887      799.257
 1871      909.164      799.265
 1872      909.441      799.263
 1873      909.718      799.265
 1874      909.995      799.282
 1875      910.271      799.304
 1876      910.548      799.312
 1877      910.824      799.323
 1878        911.1      799.349
 1879      911.375      799.372
 1880      911.651      799.375
 1881      911.927      799.353
 1882      912.202      799.345
 1883      912.477      799.354
 1884      912.752      799.329
 1885      913.027      799.301
 1886      913.301      799.286
 1887      913.576      799.298
 1888       913.85      799.312
 1889      914.124      799.317
 1890      914.398      799.329
 1891      914.672      799.358
 1892      914.945      799.395
 1893      915.219       799.42
 1894      915.492       799.42
 1895      915.765      799.408
 1896      916.038      799.388
 1897      916.311      799.379
 1898      916.583      799.369
 1899      916.856      799.363
 1900      917.128       799.35
 1901        917.4      799.351
 1902      917.672      799.359
 1903      917.944      799.376
 1904      918.215      799.409
 1905      918.486      799.443
 1906      918.758      799.456
 1907      919.029      799.474
 1908      919.299      799.483
 1909       919.57      799.478
 1910      919.841      799.451
 1911      920.111      799.434
 1912      920.381      799.438
 1913      920.651      799.443
 1914      920.921      799.433
 1915      921.191      799.441
 1916       921.46      799.446
 1917      921.729      799.457
 1918      921.999      799.476
 1919      922.268      799.479
 1920      922.536      799.466
 1921      922.805      799.446
 1922      923.073      799.421
 1923      923.342      799.418
 1924       923.61      799.428
 1925      923.878      799.437
 1926      924.145      799.449
 1927      924.413      799.461
 1928       924.68      799.463
 1929      924.948      799.486
 1930      925.215      799.513
 1931      925.482      799.529
 1932      925.748      799.563
 1933      926.015      799.594
 1934      926.281      799.617
 1935      926.547      799.619
 1936      926.813      799.607
 1937      927.079      799.591
 1938      927.345       799.59
 1939       927.61      799.621
 1940      927.876      799.669
 1941      928.141      799.719
 1942      928.406       799.74
 1943      928.671       799.73
 1944      928.935      799.709
 1945        929.2      799.701
 1946      929.464      799.687
 1947      929.728      799.664
 1948      929.992       799.67
 1949      930.256      799.684
 1950       930.52      799.681
 1951      930.783      799.679
 1952      931.046      799.698
 1953      931.309      799.725
 1954      931.572      799.756
 1955      931.835      799.778
 1956      932.097       799.79
 1957       932.36      799.798
 1958      932.622      799.781
 1959      932.884       799.76
 1960      933.146      799.738
 1961      933.408      799.742
 1962      933.669      799.769
 1963       933.93        799.8
 1964      934.192      799.822
 1965      934.453      799.839
 1966      934.713      799.849
 1967      934.974      799.864
 1968      935.234      799.873
 1969      935.495      799.866
 1970      935.755       799.84
 1971      936.015      799.814
 1972      936.274      799.786
 1973      936.534      799.762
 1974      936.793       799.75
 1975      937.053      799.752
 1976      937.312      799.744
 1977      937.571      799.736
 1978      937.829      799.729
 1979      938.088      799.715
 1980      938.346      799.719
 1981      938.604      799.727
 1982      938.862      799.737
 1983       939.12       799.74
 1984      939.378      799.734
 1985      939.635      799.739
 1986      939.893      799.758
 1987       940.15      799.795
 1988      940.407      799.817
 1989      940.663      799.823
 1990       940.92      799.823
 1991      941.176       799.82
 1992      941.433      799.817
 1993      941.689      799.807
 1994      941.944      799.787
 1995        942.2      799.789
 1996      942.456       799.81
 1997      942.711       799.84
 1998      942.966      799.854
 1999      943.221      799.866
 2000      943.476      799.871
 2001      943.731      799.878
 2002      943.985      799.886
 2003      944.239      799.905
 2004      944.493       799.91
 2005      944.747      799.881
 2006      945.001      799.845
 2007      945.255      799.821
 2008      945.508      799.792
 2009      945.761      799.774
 2010      946.014      799.772
 2011      946.267      799.787
 2012       946.52      799.808
 2013      946.772      799.825
 2014      947.025      799.822
 2015      947.277      799.818
 2016      947.529      799.812
 2017      947.781      799.819
 2018      948.032      799.823
 2019      948.284      799.811
 2020      948.535      799.794
 2021      948.786      799.774
 2022      949.037      799.758
 2023      949.288      799.774
 2024      949.538      799.791
 2025      949.789      799.787
 2026      950.039      799.788
 2027      950.289      799.778
 2028      950.539      799.753
 2029      950.788       799.75
 2030      951.038      799.738
 2031      951.287      799.715
 2032      951.536      799.708
 2033      951.785      799.681
 2034      952.034      799.661
 2035      952.282      799.652
 2036      952.531      799.661
 2037      952.779      799.681
 2038      953.027      799.692
 2039      953.275      799.677
 2040      953.523      799.647
 2041       953.77      799.608
 2042      954.017      799.561
 2043      954.264      799.532
 2044      954.511       799.54
 2045      954.758      799.571
 2046      955.005      799.577
 2047      955.251      799.562
