scansci Spectrometer Data File
--- Measurement Setting ---
Type: Sample Spectrum
Date: Fri Nov 22 17:54:50 2024
User: (Reserved by scansci)
Serial: (Reserved by scansci)
Channel: No. 11
Integration Time: 36
Average: 30
Boxcar: 50
Electrical Dark: No-corrected
Time Normalize: (Reserved by scansci)
Dual-beam: (Reserved by scansci)
Reference Ch: (Reserved by scansci)
--- Measurement Data ---
Pixel   Wavelength   Intensity
    0        162.5      822.188
    1      162.985      822.183
    2      163.469      822.157
    3      163.954      822.125
    4      164.439      822.119
    5      164.923      822.127
    6      165.408      822.105
    7      165.892      822.101
    8      166.377      822.131
    9      166.861      822.169
   10      167.345      822.187
   11       167.83      822.211
   12      168.314      822.247
   13      168.798      822.297
   14      169.282      822.349
   15      169.766      822.407
   16       170.25      822.485
   17      170.734      822.563
   18      171.218      822.632
   19      171.702       822.68
   20      172.185      822.718
   21      172.669       822.77
   22      173.153      822.815
   23      173.636      822.843
   24       174.12      822.854
   25      174.603      822.874
   26      175.087      822.915
   27       175.57      822.961
   28      176.053      822.988
   29      176.537      822.989
   30       177.02       822.99
   31      177.503       822.99
   32      177.986      822.987
   33      178.469      822.998
   34      178.952      823.026
   35      179.435       823.05
   36      179.918      823.055
   37      180.401      823.058
   38      180.884      823.069
   39      181.366      823.086
   40      181.849      823.096
   41      182.332      823.099
   42      182.814      823.088
   43      183.297      823.065
   44      183.779      823.042
   45      184.262      823.008
   46      184.744      822.976
   47      185.226      822.944
   48      185.708      822.923
   49      186.191      822.913
   50      186.673      822.907
   51      187.155      823.023
   52      187.637      823.061
   53      188.119      823.104
   54        188.6      823.147
   55      189.082      823.167
   56      189.564      823.172
   57      190.046      823.184
   58      190.527      823.186
   59      191.009      823.193
   60      191.491      823.191
   61      191.972      823.206
   62      192.454      823.243
   63      192.935      823.262
   64      193.416      823.267
   65      193.897      823.269
   66      194.379      823.274
   67       194.86      823.276
   68      195.341      823.263
   69      195.822      823.233
   70      196.303      823.205
   71      196.784      823.209
   72      197.265      823.232
   73      197.746      823.251
   74      198.226      823.261
   75      198.707      823.279
   76      199.188      823.262
   77      199.668      823.234
   78      200.149      823.246
   79      200.629      823.305
   80       201.11      823.373
   81       201.59      823.428
   82       202.07       823.48
   83       202.55      823.528
   84      203.031      823.583
   85      203.511       823.61
   86      203.991      823.606
   87      204.471      823.591
   88      204.951      823.583
   89      205.431      823.578
   90       205.91      823.587
   91       206.39      823.623
   92       206.87       823.64
   93      207.349      823.658
   94      207.829      823.678
   95      208.309      823.677
   96      208.788      823.668
   97      209.267      823.647
   98      209.747      823.626
   99      210.226      823.624
  100      210.705      823.624
  101      211.185      823.634
  102      211.664      823.652
  103      212.143      823.689
  104      212.622      823.735
  105      213.101      823.768
  106      213.579       823.78
  107      214.058      823.794
  108      214.537      823.788
  109      215.016       823.76
  110      215.494      823.739
  111      215.973      823.735
  112      216.452      823.722
  113       216.93      823.698
  114      217.408       823.67
  115      217.887      823.639
  116      218.365      823.602
  117      218.843      823.557
  118      219.321      823.501
  119      219.799      823.458
  120      220.278      823.446
  121      220.755      823.437
  122      221.233      823.406
  123      221.711      823.373
  124      222.189       823.34
  125      222.667      823.316
  126      223.144      823.289
  127      223.622       823.25
  128        224.1      823.206
  129      224.577      823.174
  130      225.055      823.176
  131      225.532      823.183
  132      226.009       823.19
  133      226.486      823.195
  134      226.964      823.174
  135      227.441      823.136
  136      227.918      823.111
  137      228.395      823.113
  138      228.872      823.117
  139      229.349      823.102
  140      229.826      823.099
  141      230.302      823.109
  142      230.779      823.119
  143      231.256      823.158
  144      231.732        823.2
  145      232.209      823.232
  146      232.685      823.265
  147      233.162      823.275
  148      233.638       823.28
  149      234.114      823.276
  150       234.59      823.267
  151      235.066      823.263
  152      235.543      823.266
  153      236.019      823.268
  154      236.495      823.262
  155       236.97      823.269
  156      237.446      823.302
  157      237.922      823.339
  158      238.398      823.372
  159      238.873      823.409
  160      239.349      823.463
  161      239.824      823.518
  162        240.3      823.554
  163      240.775      823.584
  164      241.251      823.629
  165      241.726      823.694
  166      242.201      823.754
  167      242.676      823.797
  168      243.151      823.833
  169      243.626      823.874
  170      244.101      823.922
  171      244.576      823.966
  172      245.051      823.995
  173      245.526      824.009
  174          246      824.022
  175      246.475      824.037
  176       246.95       824.04
  177      247.424      824.042
  178      247.899      824.062
  179      248.373      824.065
  180      248.847      824.018
  181      249.321       823.98
  182      249.796      823.965
  183       250.27      823.969
  184      250.744      823.991
  185      251.218       824.02
  186      251.692      824.052
  187      252.166      824.083
  188      252.639      824.123
  189      253.113      824.132
  190      253.587      824.138
  191       254.06      824.149
  192      254.534      824.161
  193      255.007      824.193
  194      255.481      824.217
  195      255.954      824.233
  196      256.427      824.266
  197      256.901      824.304
  198      257.374      824.364
  199      257.847      824.436
  200       258.32      824.496
  201      258.793      824.543
  202      259.266      824.579
  203      259.739      824.594
  204      260.211      824.588
  205      260.684      824.601
  206      261.157       824.65
  207      261.629      824.719
  208      262.102      824.801
  209      262.574      824.887
  210      263.046       824.97
  211      263.519      825.042
  212      263.991      825.121
  213      264.463      825.222
  214      264.935      825.336
  215      265.407      825.434
  216      265.879      825.528
  217      266.351      825.639
  218      266.823      825.728
  219      267.295      825.812
  220      267.766      825.902
  221      268.238      825.985
  222       268.71      826.059
  223      269.181      826.141
  224      269.653      826.232
  225      270.124      826.336
  226      270.595      826.448
  227      271.066      826.566
  228      271.538      826.681
  229      272.009      826.799
  230       272.48       826.93
  231      272.951       827.04
  232      273.422       827.13
  233      273.892      827.224
  234      274.363      827.339
  235      274.834      827.458
  236      275.305      827.574
  237      275.775      827.686
  238      276.246      827.775
  239      276.716      827.861
  240      277.186      827.964
  241      277.657      828.049
  242      278.127      828.148
  243      278.597       828.29
  244      279.067      828.429
  245      279.537      828.557
  246      280.007       828.69
  247      280.477       828.83
  248      280.947      829.009
  249      281.417      829.207
  250      281.886      829.387
  251      282.356      829.545
  252      282.825      829.698
  253      283.295      829.843
  254      283.764      829.985
  255      284.234      830.138
  256      284.703      830.266
  257      285.172      830.396
  258      285.641      830.529
  259       286.11      830.659
  260      286.579      830.768
  261      287.048      830.858
  262      287.517      830.959
  263      287.986      831.062
  264      288.454      831.175
  265      288.923      831.305
  266      289.392      831.427
  267       289.86      831.544
  268      290.329      831.687
  269      290.797      831.851
  270      291.265      832.001
  271      291.734       832.15
  272      292.202      832.311
  273       292.67      832.456
  274      293.138      832.595
  275      293.606      832.746
  276      294.074      832.904
  277      294.541      833.077
  278      295.009      833.256
  279      295.477      833.437
  280      295.944      833.625
  281      296.412      833.826
  282      296.879      834.017
  283      297.347      834.218
  284      297.814      834.412
  285      298.281      834.566
  286      298.749      834.704
  287      299.216      834.881
  288      299.683      835.095
  289       300.15       835.29
  290      300.616      835.492
  291      301.083      835.699
  292       301.55      835.901
  293      302.017      836.094
  294      302.483      836.292
  295       302.95      836.483
  296      303.416      836.682
  297      303.883      836.913
  298      304.349      837.171
  299      304.815      837.411
  300      305.281      837.628
  301      305.748      837.856
  302      306.214       838.09
  303       306.68      838.315
  304      307.146      838.573
  305      307.611      838.856
  306      308.077       839.11
  307      308.543      839.314
  308      309.008      839.501
  309      309.474      839.692
  310      309.939      839.913
  311      310.405      840.141
  312       310.87      840.383
  313      311.335      840.616
  314        311.8      840.844
  315      312.266      841.062
  316      312.731      841.276
  317      313.196      841.486
  318       313.66      841.684
  319      314.125      841.909
  320       314.59      842.152
  321      315.055       842.39
  322      315.519      842.611
  323      315.984      842.828
  324      316.448      843.053
  325      316.913      843.288
  326      317.377      843.537
  327      317.841      843.793
  328      318.305       844.05
  329      318.769      844.303
  330      319.233      844.553
  331      319.697      844.801
  332      320.161      845.096
  333      320.625      845.418
  334      321.089      845.707
  335      321.552      845.982
  336      322.016      846.263
  337      322.479      846.559
  338      322.943      846.865
  339      323.406      847.181
  340      323.869      847.477
  341      324.333      847.765
  342      324.796      848.058
  343      325.259      848.336
  344      325.722      848.592
  345      326.185       848.86
  346      326.647      849.168
  347       327.11      849.486
  348      327.573      849.804
  349      328.035      850.124
  350      328.498      850.456
  351       328.96      850.775
  352      329.423      851.098
  353      329.885      851.422
  354      330.347      851.755
  355       330.81      852.077
  356      331.272      852.388
  357      331.734      852.759
  358      332.196      853.145
  359      332.657      853.539
  360      333.119      853.948
  361      333.581      854.372
  362      334.043      854.804
  363      334.504      855.216
  364      334.966      855.605
  365      335.427      855.977
  366      335.888      856.354
  367       336.35       856.75
  368      336.811      857.165
  369      337.272      857.591
  370      337.733      858.016
  371      338.194      858.441
  372      338.655      858.884
  373      339.115      859.347
  374      339.576      859.825
  375      340.037      860.308
  376      340.497      860.835
  377      340.958      861.401
  378      341.418       861.96
  379      341.879      862.524
  380      342.339      863.088
  381      342.799      863.648
  382      343.259      864.232
  383      343.719      864.858
  384      344.179       865.52
  385      344.639      866.209
  386      345.099      866.947
  387      345.559      867.731
  388      346.018       868.52
  389      346.478      869.314
  390      346.937       870.15
  391      347.397       871.04
  392      347.856      871.998
  393      348.315      873.027
  394      348.774      874.128
  395      349.234       875.29
  396      349.693      876.546
  397      350.152      877.913
  398       350.61      879.397
  399      351.069      881.038
  400      351.528      882.839
  401      351.987      884.813
  402      352.445      886.989
  403      352.904      889.419
  404      353.362      892.144
  405       353.82      895.175
  406      354.279      898.563
  407      354.737      902.401
  408      355.195      906.738
  409      355.653      911.675
  410      356.111      917.381
  411      356.569      923.917
  412      357.027      931.335
  413      357.484       939.73
  414      357.942      949.318
  415      358.399      960.386
  416      358.857      973.154
  417      359.314      987.826
  418      359.772      1004.56
  419      360.229      1023.49
  420      360.686      1045.07
  421      361.143      1069.73
  422        361.6      1097.82
  423      362.057         1130
  424      362.514      1166.98
  425      362.971      1209.12
  426      363.427      1256.63
  427      363.884      1310.27
  428       364.34      1370.43
  429      364.797      1437.88
  430      365.253      1513.29
  431      365.709      1596.66
  432      366.166      1688.86
  433      366.622      1790.59
  434      367.078      1903.17
  435      367.534      2026.81
  436       367.99      2160.28
  437      368.445      2304.28
  438      368.901      2457.95
  439      369.357      2611.59
  440      369.812      2765.24
  441      370.268      2918.91
  442      370.723      3072.58
  443      371.179      3226.25
  444      371.634      3379.91
  445      372.089      3533.56
  446      372.544      3687.18
  447      372.999      3840.79
  448      373.454      3994.38
  449      373.909      4147.98
  450      374.364      4301.56
  451      374.818      4455.12
  452      375.273       4608.7
  453      375.727       4762.3
  454      376.182       4915.9
  455      376.636      5069.48
  456       377.09      5223.06
  457      377.545      5376.64
  458      377.999      5530.18
  459      378.453      5683.68
  460      378.907      5837.19
  461      379.361      5990.68
  462      379.814      6144.17
  463      380.268      6297.66
  464      380.722      6451.16
  465      381.175      6604.68
  466      381.629      6758.21
  467      382.082      6911.72
  468      382.535      7065.21
  469      382.989       7218.7
  470      383.442      7372.15
  471      383.895       7525.6
  472      384.348      7679.06
  473      384.801       7832.5
  474      385.253      7985.91
  475      385.706      8139.29
  476      386.159      8292.67
  477      386.611      8446.03
  478      387.064      8599.35
  479      387.516      8752.66
  480      387.968      8905.97
  481      388.421      9059.25
  482      388.873      9212.54
  483      389.325       9365.8
  484      389.777      9519.03
  485      390.229       9672.2
  486      390.681      9825.33
  487      391.132      9978.44
  488      391.584      10131.5
  489      392.035      10284.6
  490      392.487      10437.6
  491      392.938      10590.6
  492       393.39      10743.5
  493      393.841      10896.4
  494      394.292      11049.2
  495      394.743        11202
  496      395.194      11354.6
  497      395.645      11507.2
  498      396.096      11659.7
  499      396.546        11812
  500      396.997      11964.1
  501      397.448      12116.1
  502      397.898      12267.9
  503      398.349      12416.5
  504      398.799      12559.6
  505      399.249      12696.5
  506      399.699      12827.6
  507      400.149      12952.2
  508      400.599      13070.2
  509      401.049      13182.9
  510      401.499      13290.3
  511      401.949      13391.9
  512      402.398      13487.6
  513      402.848        13578
  514      403.297      13663.6
  515      403.747      13743.6
  516      404.196      13818.5
  517      404.645      13888.2
  518      405.094      13952.5
  519      405.543      14011.6
  520      405.992      14065.3
  521      406.441      14113.4
  522       406.89        14155
  523      407.339      14190.3
  524      407.787      14218.6
  525      408.236      14239.3
  526      408.684      14252.7
  527      409.132      14258.2
  528      409.581      14254.7
  529      410.029      14242.5
  530      410.477      14220.9
  531      410.925      14189.6
  532      411.373      14148.5
  533      411.821      14096.7
  534      412.269      14033.7
  535      412.716      13958.4
  536      413.164      13870.3
  537      413.611      13770.7
  538      414.059      13659.2
  539      414.506      13536.5
  540      414.953      13412.7
  541        415.4      13287.8
  542      415.847      13161.8
  543      416.294      13034.5
  544      416.741      12906.1
  545      417.188      12776.7
  546      417.635      12646.4
  547      418.081      12515.1
  548      418.528      12383.1
  549      418.974      12250.2
  550      419.421      12116.4
  551      419.867      11981.8
  552      420.313      11846.7
  553      420.759      11710.8
  554      421.205      11573.9
  555      421.651      11436.1
  556      422.097      11297.4
  557      422.543        11158
  558      422.989      11017.8
  559      423.434        10877
  560       423.88      10735.6
  561      424.325      10593.9
  562       424.77      10451.7
  563      425.216      10309.2
  564      425.661      10166.5
  565      426.106      10023.5
  566      426.551      9880.03
  567      426.996      9736.25
  568       427.44      9592.11
  569      427.885      9447.54
  570       428.33      9302.65
  571      428.774      9157.47
  572      429.219      9011.98
  573      429.663      8866.16
  574      430.107      8720.05
  575      430.551      8573.66
  576      430.996      8427.02
  577       431.44      8280.14
  578      431.883      8133.01
  579      432.327      7985.66
  580      432.771      7838.14
  581      433.215       7690.4
  582      433.658      7542.46
  583      434.102      7394.31
  584      434.545      7246.01
  585      434.988      7097.58
  586      435.431      6948.96
  587      435.875      6800.16
  588      436.318      6651.23
  589      436.761      6502.12
  590      437.203      6352.83
  591      437.646      6203.44
  592      438.089      6053.94
  593      438.531       5904.3
  594      438.974      5754.57
  595      439.416      5604.75
  596      439.859      5454.84
  597      440.301      5304.81
  598      440.743      5154.65
  599      441.185       5004.4
  600      441.627      4854.05
  601      442.069      4703.59
  602       442.51      4553.02
  603      442.952      4402.35
  604      443.394      4254.59
  605      443.835      4112.02
  606      444.277      3975.31
  607      444.718      3843.98
  608      445.159      3718.66
  609        445.6      3599.46
  610      446.041      3485.07
  611      446.482      3375.27
  612      446.923      3270.44
  613      447.364      3170.56
  614      447.804      3074.97
  615      448.245      2983.27
  616      448.685      2895.78
  617      449.126      2811.86
  618      449.566      2731.45
  619      450.006      2654.46
  620      450.447      2580.57
  621      450.887      2509.75
  622      451.326      2441.99
  623      451.766      2377.45
  624      452.206      2315.81
  625      452.646      2257.06
  626      453.085      2200.99
  627      453.525      2147.05
  628      453.964      2095.61
  629      454.403      2046.88
  630      454.843      2000.38
  631      455.282       1955.9
  632      455.721      1913.18
  633       456.16      1872.24
  634      456.599      1833.12
  635      457.037       1795.6
  636      457.476      1759.57
  637      457.915       1725.3
  638      458.353      1692.55
  639      458.791      1661.19
  640       459.23      1631.32
  641      459.668      1602.54
  642      460.106      1574.75
  643      460.544      1548.11
  644      460.982      1522.69
  645       461.42      1498.41
  646      461.857       1475.1
  647      462.295      1452.72
  648      462.733      1431.21
  649       463.17      1410.47
  650      463.607       1390.6
  651      464.045      1371.62
  652      464.482      1353.33
  653      464.919      1335.64
  654      465.356      1318.67
  655      465.793      1302.63
  656       466.23      1287.55
  657      466.666      1273.29
  658      467.103      1259.78
  659      467.539      1247.02
  660      467.976       1234.9
  661      468.412      1223.25
  662      468.848      1211.97
  663      469.284      1201.08
  664       469.72      1190.53
  665      470.156      1180.22
  666      470.592      1170.18
  667      471.028      1160.52
  668      471.464      1151.19
  669      471.899      1142.22
  670      472.335      1133.66
  671       472.77      1125.42
  672      473.205      1117.43
  673      473.641      1109.74
  674      474.076      1102.39
  675      474.511      1095.32
  676      474.946      1088.51
  677       475.38      1081.94
  678      475.815       1075.6
  679       476.25       1069.5
  680      476.684      1063.61
  681      477.119       1057.9
  682      477.553      1052.38
  683      477.987      1047.05
  684      478.421      1041.87
  685      478.856      1036.84
  686      479.289      1031.94
  687      479.723      1027.23
  688      480.157      1022.67
  689      480.591      1018.23
  690      481.024      1013.96
  691      481.458      1009.88
  692      481.891      1005.89
  693      482.324      1002.02
  694      482.758      998.286
  695      483.191      994.626
  696      483.624      991.029
  697      484.057      987.508
  698      484.489      984.087
  699      484.922      980.781
  700      485.355      977.549
  701      485.787      974.396
  702       486.22      971.366
  703      486.652      968.435
  704      487.084      965.619
  705      487.516      962.906
  706      487.948      960.266
  707       488.38      957.678
  708      488.812      955.178
  709      489.244      952.774
  710      489.676      950.417
  711      490.107      948.099
  712      490.539      945.843
  713       490.97       943.63
  714      491.401      941.497
  715      491.832      939.455
  716      492.263      937.453
  717      492.694      935.518
  718      493.125      933.654
  719      493.556      931.834
  720      493.987       930.06
  721      494.417      928.348
  722      494.848      926.679
  723      495.278      925.021
  724      495.708      923.402
  725      496.139       921.82
  726      496.569      920.258
  727      496.999      918.744
  728      497.429      917.286
  729      497.858      915.886
  730      498.288      914.521
  731      498.718      913.181
  732      499.147      911.854
  733      499.577      910.562
  734      500.006      909.308
  735      500.435      908.081
  736      500.864      906.864
  737      501.293      905.647
  738      501.722      904.445
  739      502.151      903.286
  740       502.58      902.189
  741      503.008      901.126
  742      503.437      900.087
  743      503.865        899.1
  744      504.293      898.156
  745      504.722      897.211
  746       505.15      896.269
  747      505.578      895.335
  748      506.006      894.436
  749      506.434      893.557
  750      506.861      892.673
  751      507.289      891.792
  752      507.716      890.899
  753      508.144      890.017
  754      508.571      889.163
  755      508.998      888.329
  756      509.425      887.501
  757      509.852      886.726
  758      510.279      885.977
  759      510.706      885.217
  760      511.133      884.462
  761       511.56      883.739
  762      511.986      883.033
  763      512.412      882.352
  764      512.839      881.701
  765      513.265      881.066
  766      513.691      880.445
  767      514.117      879.823
  768      514.543      879.219
  769      514.969      878.651
  770      515.395      878.097
  771       515.82      877.532
  772      516.246      876.965
  773      516.671      876.433
  774      517.096      875.904
  775      517.522      875.369
  776      517.947      874.831
  777      518.372      874.309
  778      518.797      873.818
  779      519.222      873.336
  780      519.646      872.863
  781      520.071      872.393
  782      520.495      871.941
  783       520.92      871.494
  784      521.344      871.078
  785      521.768      870.702
  786      522.192      870.344
  787      522.616      869.983
  788       523.04      869.609
  789      523.464      869.235
  790      523.888      868.877
  791      524.311      868.518
  792      524.735      868.154
  793      525.158      867.797
  794      525.581       867.45
  795      526.005      867.101
  796      526.428      866.772
  797      526.851      866.492
  798      527.274      866.225
  799      527.696      865.939
  800      528.119      865.677
  801      528.542      865.445
  802      528.964      865.224
  803      529.386      865.006
  804      529.809      864.785
  805      530.231      864.539
  806      530.653      864.279
  807      531.075      864.019
  808      531.497      863.773
  809      531.918      863.542
  810       532.34      863.294
  811      532.761      863.073
  812      533.183      862.893
  813      533.604      862.734
  814      534.025      862.581
  815      534.447      862.424
  816      534.868      862.254
  817      535.289      862.076
  818      535.709      861.886
  819       536.13       861.71
  820      536.551      861.544
  821      536.971      861.374
  822      537.392      861.202
  823      537.812      861.042
  824      538.232      860.909
  825      538.652      860.797
  826      539.072      860.697
  827      539.492      860.618
  828      539.912      860.551
  829      540.331      860.474
  830      540.751      860.392
  831       541.17      860.315
  832       541.59      860.247
  833      542.009      860.184
  834      542.428      860.101
  835      542.847      859.994
  836      543.266      859.899
  837      543.685      859.834
  838      544.104      859.766
  839      544.522      859.662
  840      544.941      859.556
  841      545.359      859.449
  842      545.778      859.344
  843      546.196      859.244
  844      546.614      859.122
  845      547.032          859
  846       547.45      858.904
  847      547.867      858.811
  848      548.285      858.707
  849      548.703      858.586
  850       549.12      858.465
  851      549.538      858.382
  852      549.955      858.314
  853      550.372       858.27
  854      550.789      858.231
  855      551.206      858.192
  856      551.623      858.147
  857      552.039      858.106
  858      552.456      858.075
  859      552.873      858.057
  860      553.289      858.045
  861      553.705      858.034
  862      554.121      858.007
  863      554.537      857.979
  864      554.953      857.952
  865      555.369      857.912
  866      555.785      857.856
  867      556.201      857.798
  868      556.616      857.764
  869      557.032      857.733
  870      557.447      857.652
  871      557.862      857.567
  872      558.277      857.517
  873      558.692      857.492
  874      559.107      857.472
  875      559.522       857.46
  876      559.937      857.465
  877      560.351      857.475
  878      560.766      857.461
  879       561.18      857.412
  880      561.595      857.383
  881      562.009       857.37
  882      562.423      857.327
  883      562.837      857.276
  884       563.25      857.227
  885      563.664      857.154
  886      564.078      857.064
  887      564.491      856.978
  888      564.905      856.885
  889      565.318      856.793
  890      565.731      856.738
  891      566.144      856.684
  892      566.557      856.624
  893       566.97      856.555
  894      567.383      856.483
  895      567.795      856.408
  896      568.208      856.344
  897       568.62      856.258
  898      569.033      856.129
  899      569.445      855.983
  900      569.857      855.873
  901      570.269       855.77
  902      570.681      855.661
  903      571.093      855.564
  904      571.504      855.486
  905      571.916      855.413
  906      572.327      855.339
  907      572.739      855.243
  908       573.15      855.128
  909      573.561      855.021
  910      573.972      854.925
  911      574.383      854.827
  912      574.794      854.696
  913      575.204      854.544
  914      575.615       854.38
  915      576.025        854.2
  916      576.436      854.021
  917      576.846      853.879
  918      577.256       853.75
  919      577.666      853.626
  920      578.076      853.492
  921      578.486      853.349
  922      578.896      853.207
  923      579.305      853.071
  924      579.715      852.937
  925      580.124      852.797
  926      580.533      852.644
  927      580.942      852.478
  928      581.351      852.279
  929       581.76       852.05
  930      582.169      851.833
  931      582.578      851.616
  932      582.986      851.415
  933      583.395      851.215
  934      583.803      851.019
  935      584.212      850.834
  936       584.62      850.655
  937      585.028      850.465
  938      585.436      850.259
  939      585.843      850.072
  940      586.251      849.901
  941      586.659      849.722
  942      587.066      849.526
  943      587.474      849.335
  944      587.881      849.168
  945      588.288      849.018
  946      588.695      848.849
  947      589.102      848.668
  948      589.509      848.507
  949      589.915      848.336
  950      590.322      848.162
  951      590.728      847.996
  952      591.135      847.808
  953      591.541      847.613
  954      591.947      847.434
  955      592.353      847.262
  956      592.759       847.08
  957      593.165       846.91
  958      593.571      846.759
  959      593.976      846.582
  960      594.382      846.364
  961      594.787      846.135
  962      595.192      845.934
  963      595.597      845.767
  964      596.002       845.57
  965      596.407      845.359
  966      596.812      845.152
  967      597.217       844.95
  968      597.621      844.743
  969      598.026      844.511
  970       598.43      844.268
  971      598.834      844.043
  972      599.238      843.821
  973      599.642      843.587
  974      600.046      843.359
  975       600.45      843.141
  976      600.854      842.917
  977      601.257       842.67
  978      601.661      842.423
  979      602.064      842.187
  980      602.467      841.954
  981       602.87      841.686
  982      603.273      841.411
  983      603.676      841.176
  984      604.079       840.93
  985      604.481      840.678
  986      604.884      840.439
  987      605.286      840.214
  988      605.689      839.986
  989      606.091      839.759
  990      606.493      839.553
  991      606.895      839.342
  992      607.297      839.131
  993      607.698      838.935
  994        608.1      838.735
  995      608.501       838.52
  996      608.903      838.298
  997      609.304      838.073
  998      609.705      837.857
  999      610.106      837.652
 1000      610.507      837.469
 1001      610.908       837.29
 1002      611.308      837.115
 1003      611.709      836.943
 1004      612.109      836.747
 1005       612.51      836.515
 1006       612.91      836.285
 1007       613.31      836.083
 1008       613.71      835.902
 1009       614.11      835.724
 1010       614.51      835.537
 1011      614.909      835.334
 1012      615.309      835.117
 1013      615.708      834.935
 1014      616.108      834.782
 1015      616.507      834.609
 1016      616.906      834.449
 1017      617.305      834.312
 1018      617.704      834.155
 1019      618.102      833.985
 1020      618.501      833.804
 1021      618.899      833.617
 1022      619.298       833.42
 1023      619.696      833.213
 1024      620.094      833.011
 1025      620.492      832.808
 1026       620.89       832.61
 1027      621.288      832.422
 1028      621.686      832.251
 1029      622.083      832.101
 1030       622.48      831.957
 1031      622.878      831.808
 1032      623.275      831.656
 1033      623.672      831.499
 1034      624.069      831.355
 1035      624.466      831.207
 1036      624.863      831.057
 1037      625.259      830.912
 1038      625.656      830.767
 1039      626.052      830.645
 1040      626.448      830.514
 1041      626.844      830.367
 1042      627.241      830.235
 1043      627.636       830.12
 1044      628.032      829.987
 1045      628.428      829.833
 1046      628.823      829.702
 1047      629.219      829.587
 1048      629.614       829.45
 1049      630.009      829.286
 1050      630.404      829.111
 1051      630.799      828.932
 1052      631.194      828.785
 1053      631.589      828.663
 1054      631.984      828.537
 1055      632.378      828.406
 1056      632.772       828.26
 1057      633.167      828.106
 1058      633.561      827.934
 1059      633.955       827.75
 1060      634.349      827.589
 1061      634.743       827.44
 1062      635.136      827.288
 1063       635.53       827.11
 1064      635.923      826.933
 1065      636.316      826.818
 1066       636.71      826.711
 1067      637.103      826.594
 1068      637.496      826.472
 1069      637.888      826.354
 1070      638.281      826.246
 1071      638.674       826.16
 1072      639.066      826.098
 1073      639.459      826.022
 1074      639.851      825.921
 1075      640.243      825.792
 1076      640.635      825.643
 1077      641.027      825.498
 1078      641.419       825.34
 1079       641.81      825.181
 1080      642.202      825.041
 1081      642.593      824.917
 1082      642.984      824.793
 1083      643.375      824.662
 1084      643.766      824.521
 1085      644.157      824.365
 1086      644.548      824.185
 1087      644.939      824.019
 1088      645.329      823.864
 1089       645.72      823.723
 1090       646.11      823.591
 1091        646.5      823.449
 1092       646.89      823.306
 1093       647.28      823.166
 1094       647.67      823.011
 1095       648.06      822.858
 1096      648.449      822.716
 1097      648.839      822.565
 1098      649.228      822.412
 1099      649.617      822.266
 1100      650.007      822.129
 1101      650.396      821.978
 1102      650.784      821.826
 1103      651.173       821.66
 1104      651.562      821.476
 1105       651.95      821.316
 1106      652.339      821.186
 1107      652.727      821.046
 1108      653.115      820.878
 1109      653.503      820.699
 1110      653.891      820.552
 1111      654.279      820.407
 1112      654.666      820.242
 1113      655.054      820.099
 1114      655.441      819.958
 1115      655.828       819.79
 1116      656.216      819.615
 1117      656.603      819.438
 1118      656.989      819.241
 1119      657.376      819.042
 1120      657.763      818.854
 1121      658.149      818.697
 1122      658.536      818.549
 1123      658.922      818.413
 1124      659.308      818.282
 1125      659.694      818.134
 1126       660.08      817.974
 1127      660.466        817.8
 1128      660.852      817.616
 1129      661.237      817.413
 1130      661.623      817.223
 1131      662.008      817.058
 1132      662.393      816.909
 1133      662.778      816.771
 1134      663.163      816.622
 1135      663.548      816.468
 1136      663.933       816.31
 1137      664.317      816.159
 1138      664.702       816.02
 1139      665.086      815.884
 1140       665.47      815.765
 1141      665.854       815.66
 1142      666.238      815.538
 1143      666.622      815.392
 1144      667.006      815.242
 1145      667.389       815.09
 1146      667.773       814.94
 1147      668.156      814.777
 1148      668.539      814.587
 1149      668.923      814.394
 1150      669.305      814.216
 1151      669.688      814.073
 1152      670.071      813.926
 1153      670.454      813.731
 1154      670.836      813.522
 1155      671.218      813.324
 1156      671.601      813.127
 1157      671.983      812.951
 1158      672.365      812.834
 1159      672.747      812.773
 1160      673.128      812.677
 1161       673.51      812.525
 1162      673.891      812.366
 1163      674.273      812.213
 1164      674.654      812.065
 1165      675.035      811.907
 1166      675.416      811.718
 1167      675.797      811.537
 1168      676.177      811.364
 1169      676.558      811.206
 1170      676.938       811.05
 1171      677.319      810.879
 1172      677.699      810.697
 1173      678.079      810.509
 1174      678.459      810.331
 1175      678.839      810.165
 1176      679.219      810.004
 1177      679.598      809.847
 1178      679.978      809.692
 1179      680.357      809.545
 1180      680.736      809.408
 1181      681.115      809.287
 1182      681.494      809.183
 1183      681.873      809.074
 1184      682.252      808.943
 1185       682.63      808.813
 1186      683.009      808.701
 1187      683.387      808.623
 1188      683.765       808.54
 1189      684.143      808.442
 1190      684.521      808.337
 1191      684.899      808.237
 1192      685.277      808.141
 1193      685.654      808.033
 1194      686.032      807.923
 1195      686.409      807.827
 1196      686.786      807.737
 1197      687.163       807.64
 1198       687.54      807.561
 1199      687.917      807.477
 1200      688.294      807.393
 1201       688.67      807.318
 1202      689.046       807.25
 1203      689.423      807.163
 1204      689.799      807.074
 1205      690.175      806.988
 1206      690.551       806.88
 1207      690.927      806.742
 1208      691.302      806.615
 1209      691.678      806.511
 1210      692.053      806.424
 1211      692.428      806.314
 1212      692.804      806.197
 1213      693.179      806.108
 1214      693.553      806.013
 1215      693.928      805.902
 1216      694.303       805.81
 1217      694.677       805.74
 1218      695.052      805.674
 1219      695.426      805.609
 1220        695.8      805.537
 1221      696.174      805.448
 1222      696.548      805.338
 1223      696.921      805.227
 1224      697.295      805.137
 1225      697.669       805.08
 1226      698.042      805.019
 1227      698.415      804.958
 1228      698.788      804.909
 1229      699.161      804.878
 1230      699.534       804.84
 1231      699.907      804.781
 1232      700.279      804.717
 1233      700.652       804.64
 1234      701.024      804.544
 1235      701.396      804.445
 1236      701.768      804.354
 1237       702.14      804.279
 1238      702.512      804.188
 1239      702.883      804.099
 1240      703.255      804.022
 1241      703.626      803.914
 1242      703.998      803.778
 1243      704.369      803.686
 1244       704.74      803.626
 1245      705.111      803.578
 1246      705.481      803.545
 1247      705.852      803.503
 1248      706.222      803.438
 1249      706.593      803.374
 1250      706.963      803.325
 1251      707.333      803.293
 1252      707.703      803.256
 1253      708.073      803.211
 1254      708.442      803.252
 1255      708.812      803.352
 1256      709.181      803.397
 1257      709.551      803.398
 1258       709.92      803.372
 1259      710.289      803.288
 1260      710.658      803.156
 1261      711.027       803.06
 1262      711.395      802.993
 1263      711.764      802.945
 1264      712.132      802.888
 1265        712.5      802.809
 1266      712.869      802.739
 1267      713.236      802.686
 1268      713.604      802.621
 1269      713.972      802.553
 1270       714.34      802.474
 1271      714.707      802.396
 1272      715.074      802.345
 1273      715.442      802.306
 1274      715.809      802.262
 1275      716.176      802.214
 1276      716.542      802.175
 1277      716.909      802.133
 1278      717.276      802.073
 1279      717.642      802.004
 1280      718.008      801.953
 1281      718.374       801.91
 1282       718.74      801.847
 1283      719.106       801.77
 1284      719.472      801.709
 1285      719.838       801.67
 1286      720.203      801.626
 1287      720.568      801.576
 1288      720.934      801.523
 1289      721.299      801.474
 1290      721.664      801.424
 1291      722.029      801.362
 1292      722.393      801.304
 1293      722.758      801.242
 1294      723.122      801.186
 1295      723.486      801.135
 1296      723.851      801.081
 1297      724.215       801.03
 1298      724.578      800.986
 1299      724.942      800.915
 1300      725.306      800.838
 1301      725.669      800.768
 1302      726.033      800.689
 1303      726.396      800.603
 1304      726.759      800.524
 1305      727.122      800.455
 1306      727.485      800.394
 1307      727.847      800.331
 1308       728.21      800.291
 1309      728.572      800.257
 1310      728.935      800.221
 1311      729.297      800.193
 1312      729.659      800.153
 1313      730.021      800.107
 1314      730.382      800.052
 1315      730.744      799.985
 1316      731.105      799.922
 1317      731.467      799.868
 1318      731.828      799.852
 1319      732.189      799.872
 1320       732.55      799.877
 1321      732.911      799.867
 1322      733.271      799.858
 1323      733.632      799.853
 1324      733.992      799.845
 1325      734.352      799.813
 1326      734.713      799.756
 1327      735.072      799.698
 1328      735.432      799.634
 1329      735.792      799.577
 1330      736.152      799.499
 1331      736.511      799.419
 1332       736.87      799.337
 1333      737.229      799.263
 1334      737.589      799.197
 1335      737.947      799.139
 1336      738.306      799.096
 1337      738.665       799.06
 1338      739.023      799.026
 1339      739.382      798.992
 1340       739.74      798.944
 1341      740.098      798.886
 1342      740.456      798.823
 1343      740.814      798.772
 1344      741.171      798.712
 1345      741.529      798.644
 1346      741.886      798.556
 1347      742.244       798.48
 1348      742.601      798.416
 1349      742.958      798.366
 1350      743.314      798.336
 1351      743.671      798.292
 1352      744.028      798.235
 1353      744.384       798.17
 1354       744.74      798.103
 1355      745.097      797.959
 1356      745.453      797.757
 1357      745.809      797.612
 1358      746.164      797.519
 1359       746.52       797.45
 1360      746.875      797.394
 1361      747.231       797.34
 1362      747.586      797.285
 1363      747.941      797.235
 1364      748.296      797.178
 1365      748.651      797.144
 1366      749.005      797.117
 1367       749.36      797.043
 1368      749.714      796.978
 1369      750.069      796.944
 1370      750.423       796.91
 1371      750.777      796.872
 1372       751.13       796.82
 1373      751.484       796.75
 1374      751.838      796.678
 1375      752.191      796.609
 1376      752.544      796.549
 1377      752.897       796.49
 1378       753.25      796.417
 1379      753.603      796.358
 1380      753.956      796.317
 1381      754.309      796.267
 1382      754.661        796.2
 1383      755.013      796.119
 1384      755.365      796.049
 1385      755.717      795.988
 1386      756.069      795.925
 1387      756.421      795.879
 1388      756.773      795.857
 1389      757.124      795.852
 1390      757.476      795.837
 1391      757.827      795.804
 1392      758.178      795.776
 1393      758.529      795.742
 1394      758.879      795.715
 1395       759.23      795.689
 1396      759.581      795.673
 1397      759.931      795.676
 1398      760.281      795.668
 1399      760.631      795.657
 1400      760.981      795.666
 1401      761.331      795.697
 1402      761.681      795.697
 1403       762.03      795.694
 1404      762.379      795.692
 1405      762.729       795.68
 1406      763.078      795.665
 1407      763.427      795.639
 1408      763.776      795.615
 1409      764.124       795.57
 1410      764.473      795.521
 1411      764.821      795.482
 1412      765.169      795.434
 1413      765.517      795.411
 1414      765.865       795.41
 1415      766.213      795.424
 1416      766.561      795.464
 1417      766.909      795.483
 1418      767.256      795.472
 1419      767.603      795.411
 1420       767.95      795.314
 1421      768.297      795.215
 1422      768.644      795.149
 1423      768.991      795.112
 1424      769.337      795.074
 1425      769.684       795.03
 1426       770.03      794.992
 1427      770.376      794.957
 1428      770.722      794.938
 1429      771.068      794.918
 1430      771.414      794.894
 1431      771.759       794.89
 1432      772.105      794.912
 1433       772.45      794.967
 1434      772.795      795.024
 1435       773.14      795.063
 1436      773.485       795.08
 1437       773.83      795.074
 1438      774.174      795.045
 1439      774.519      795.008
 1440      774.863      794.987
 1441      775.207      794.976
 1442      775.551      794.962
 1443      775.895      794.945
 1444      776.239      794.937
 1445      776.582      794.933
 1446      776.926      794.932
 1447      777.269      794.932
 1448      777.612      794.913
 1449      777.955      794.904
 1450      778.298      794.905
 1451      778.641      794.901
 1452      778.983      794.917
 1453      779.326      794.934
 1454      779.668      794.955
 1455       780.01      794.985
 1456      780.352      795.001
 1457      780.694      795.014
 1458      781.036      795.013
 1459      781.377      794.985
 1460      781.719      794.953
 1461       782.06      794.915
 1462      782.401      794.879
 1463      782.742      794.851
 1464      783.083      794.824
 1465      783.424      794.814
 1466      783.764      794.805
 1467      784.105      794.805
 1468      784.445       794.83
 1469      784.785      794.853
 1470      785.125      794.853
 1471      785.465      794.853
 1472      785.805      794.856
 1473      786.144      794.848
 1474      786.484      794.825
 1475      786.823      794.791
 1476      787.162      794.761
 1477      787.501      794.737
 1478       787.84      794.728
 1479      788.178      794.749
 1480      788.517      794.786
 1481      788.855      794.819
 1482      789.194      794.824
 1483      789.532      794.814
 1484       789.87      794.809
 1485      790.208      794.822
 1486      790.545       794.83
 1487      790.883      794.816
 1488       791.22        794.8
 1489      791.557      794.775
 1490      791.894      794.737
 1491      792.231       794.71
 1492      792.568      794.687
 1493      792.905      794.682
 1494      793.241      794.684
 1495      793.578      794.671
 1496      793.914      794.657
 1497       794.25      794.628
 1498      794.586      794.571
 1499      794.922      794.514
 1500      795.257      794.468
 1501      795.593      794.429
 1502      795.928      794.368
 1503      796.263      794.317
 1504      796.598      794.281
 1505      796.933      794.261
 1506      797.268      794.259
 1507      797.603      794.255
 1508      797.937      794.248
 1509      798.271      794.248
 1510      798.606      794.268
 1511       798.94      794.288
 1512      799.274      794.296
 1513      799.607      794.317
 1514      799.941      794.333
 1515      800.274       794.32
 1516      800.608       794.27
 1517      800.941      794.203
 1518      801.274      794.143
 1519      801.607        794.1
 1520      801.939       794.07
 1521      802.272       794.03
 1522      802.604      794.018
 1523      802.936      794.004
 1524      803.269      793.973
 1525      803.601      793.961
 1526      803.932      793.952
 1527      804.264       793.94
 1528      804.596      793.924
 1529      804.927      793.909
 1530      805.258      793.909
 1531      805.589      793.913
 1532       805.92      793.914
 1533      806.251      793.895
 1534      806.582      793.849
 1535      806.912      793.792
 1536      807.242      793.744
 1537      807.573      793.728
 1538      807.903      793.732
 1539      808.232      793.732
 1540      808.562      793.722
 1541      808.892      793.693
 1542      809.221      793.672
 1543      809.551       793.66
 1544       809.88      793.653
 1545      810.209      793.646
 1546      810.538      793.634
 1547      810.866      793.617
 1548      811.195      793.592
 1549      811.523      793.562
 1550      811.851      793.515
 1551       812.18      793.481
 1552      812.507      793.465
 1553      812.835      793.453
 1554      813.163      793.433
 1555       813.49      793.391
 1556      813.818      793.357
 1557      814.145      793.332
 1558      814.472      793.303
 1559      814.799      793.287
 1560      815.126        793.3
 1561      815.452      793.313
 1562      815.779      793.318
 1563      816.105      793.321
 1564      816.431      793.323
 1565      816.757      793.331
 1566      817.083      793.335
 1567      817.409      793.329
 1568      817.734      793.312
 1569       818.06      793.272
 1570      818.385      793.217
 1571       818.71      793.181
 1572      819.035      793.156
 1573       819.36      793.139
 1574      819.685      793.148
 1575      820.009      793.171
 1576      820.333      793.202
 1577      820.658      793.212
 1578      820.982      793.202
 1579      821.305      793.279
 1580      821.629      793.403
 1581      821.953       793.45
 1582      822.276      793.468
 1583        822.6      793.506
 1584      822.923       793.55
 1585      823.246      793.587
 1586      823.569      793.609
 1587      823.891      793.618
 1588      824.214       793.63
 1589      824.536      793.636
 1590      824.858      793.635
 1591       825.18      793.631
 1592      825.502      793.637
 1593      825.824      793.685
 1594      826.146      793.716
 1595      826.467      793.708
 1596      826.789      793.694
 1597       827.11      793.681
 1598      827.431      793.665
 1599      827.752      793.673
 1600      828.072      793.706
 1601      828.393      793.727
 1602      828.713      793.731
 1603      829.034      793.732
 1604      829.354      793.741
 1605      829.674      793.738
 1606      829.993      793.725
 1607      830.313       793.72
 1608      830.633      793.725
 1609      830.952      793.732
 1610      831.271      793.735
 1611       831.59      793.723
 1612      831.909      793.718
 1613      832.228      793.719
 1614      832.546      793.692
 1615      832.865      793.656
 1616      833.183       793.64
 1617      833.501      793.635
 1618      833.819      793.616
 1619      834.137      793.589
 1620      834.455      793.565
 1621      834.772      793.541
 1622      835.089      793.528
 1623      835.407      793.509
 1624      835.724      793.491
 1625       836.04      793.474
 1626      836.357      793.446
 1627      836.674      793.431
 1628       836.99       793.43
 1629      837.306      793.433
 1630      837.623      793.433
 1631      837.939      793.409
 1632      838.254      793.355
 1633       838.57      793.307
 1634      838.886      793.289
 1635      839.201      793.271
 1636      839.516      793.232
 1637      839.831      793.188
 1638      840.146      793.135
 1639      840.461      793.086
 1640      840.775       793.07
 1641       841.09      793.065
 1642      841.404       793.06
 1643      841.718      793.035
 1644      842.032      792.992
 1645      842.346      792.962
 1646      842.659      792.939
 1647      842.973      792.914
 1648      843.286       792.89
 1649      843.599      792.884
 1650      843.912      792.891
 1651      844.225      792.901
 1652      844.538      792.879
 1653      844.851      792.853
 1654      845.163      792.826
 1655      845.475      792.792
 1656      845.787      792.796
 1657      846.099      792.808
 1658      846.411      792.796
 1659      846.723      792.784
 1660      847.034      792.782
 1661      847.345      792.785
 1662      847.657      792.791
 1663      847.968      792.791
 1664      848.278      792.789
 1665      848.589      792.783
 1666        848.9      792.757
 1667       849.21      792.707
 1668       849.52      792.641
 1669       849.83      792.593
 1670       850.14      792.603
 1671       850.45      792.645
 1672      850.759      792.671
 1673      851.069      792.685
 1674      851.378      792.686
 1675      851.687       792.68
 1676      851.996       792.68
 1677      852.305       792.66
 1678      852.614      792.657
 1679      852.922      792.677
 1680       853.23      792.598
 1681      853.539      792.453
 1682      853.847      792.356
 1683      854.154      792.281
 1684      854.462      792.215
 1685       854.77      792.149
 1686      855.077       792.09
 1687      855.384       792.04
 1688      855.691      792.003
 1689      855.998      791.996
 1690      856.305      791.989
 1691      856.612      791.961
 1692      856.918      791.911
 1693      857.224      791.843
 1694       857.53      791.754
 1695      857.836      791.654
 1696      858.142      791.577
 1697      858.448      791.526
 1698      858.753      791.485
 1699      859.059      791.439
 1700      859.364      791.376
 1701      859.669      791.324
 1702      859.974      791.295
 1703      860.278      791.266
 1704      860.583       791.24
 1705      860.887      791.216
 1706      861.192      791.201
 1707      861.496       791.19
 1708        861.8      791.167
 1709      862.103      791.142
 1710      862.407      791.129
 1711       862.71      791.105
 1712      863.014      791.086
 1713      863.317      791.062
 1714       863.62      791.019
 1715      863.922      790.984
 1716      864.225      790.958
 1717      864.527       790.94
 1718       864.83      790.937
 1719      865.132      790.948
 1720      865.434      790.973
 1721      865.736      790.989
 1722      866.037      791.002
 1723      866.339      791.009
 1724       866.64      791.009
 1725      866.941      791.014
 1726      867.242      791.021
 1727      867.543      791.001
 1728      867.844      790.956
 1729      868.145      790.908
 1730      868.445      790.878
 1731      868.745      790.869
 1732      869.045      790.869
 1733      869.345      790.888
 1734      869.645      790.898
 1735      869.944      790.877
 1736      870.244      790.857
 1737      870.543      790.858
 1738      870.842      790.875
 1739      871.141      790.892
 1740       871.44      790.891
 1741      871.739      790.859
 1742      872.037      790.833
 1743      872.335      790.818
 1744      872.634       790.82
 1745      872.931      790.833
 1746      873.229      790.837
 1747      873.527      790.813
 1748      873.824      790.817
 1749      874.122      790.832
 1750      874.419      790.832
 1751      874.716      790.851
 1752      875.013      790.864
 1753      875.309      790.863
 1754      875.606      790.865
 1755      875.902      790.896
 1756      876.199      790.936
 1757      876.495       790.94
 1758       876.79      790.937
 1759      877.086      790.947
 1760      877.382      790.968
 1761      877.677      790.994
 1762      877.972      791.004
 1763      878.267      790.992
 1764      878.562      791.016
 1765      878.857      791.046
 1766      879.152      791.047
 1767      879.446      791.054
 1768       879.74      791.084
 1769      880.034      791.123
 1770      880.328      791.137
 1771      880.622      791.127
 1772      880.916      791.079
 1773      881.209       791.02
 1774      881.502      790.965
 1775      881.795      790.927
 1776      882.088      790.901
 1777      882.381      790.866
 1778      882.674      790.845
 1779      882.966      790.818
 1780      883.258       790.79
 1781      883.551      790.768
 1782      883.843      790.751
 1783      884.134      790.752
 1784      884.426      790.739
 1785      884.717      790.712
 1786      885.009      790.705
 1787        885.3      790.706
 1788      885.591      790.691
 1789      885.882      790.659
 1790      886.172      790.616
 1791      886.463      790.582
 1792      886.753      790.573
 1793      887.043      790.603
 1794      887.333      790.658
 1795      887.623       790.69
 1796      887.913      790.712
 1797      888.202      790.733
 1798      888.492      790.764
 1799      888.781      790.803
 1800       889.07      790.839
 1801      889.359      790.861
 1802      889.647      790.862
 1803      889.936      790.855
 1804      890.224      790.841
 1805      890.512      790.829
 1806        890.8       790.83
 1807      891.088      790.831
 1808      891.376      790.837
 1809      891.663      790.858
 1810      891.951      790.875
 1811      892.238      790.881
 1812      892.525      790.915
 1813      892.812      790.964
 1814      893.099      790.989
 1815      893.385      791.014
 1816      893.671      791.027
 1817      893.958      791.025
 1818      894.244      791.012
 1819       894.53      791.018
 1820      894.815      791.047
 1821      895.101      791.058
 1822      895.386      791.074
 1823      895.671      791.092
 1824      895.956      791.112
 1825      896.241      791.119
 1826      896.526      791.117
 1827       896.81      791.117
 1828      897.095       791.13
 1829      897.379      791.152
 1830      897.663      791.154
 1831      897.947      791.139
 1832      898.231      791.111
 1833      898.514      791.092
 1834      898.798      791.068
 1835      899.081      791.037
 1836      899.364      791.035
 1837      899.647      791.041
 1838      899.929      791.039
 1839      900.212      791.038
 1840      900.494      791.026
 1841      900.776      791.021
 1842      901.058      791.029
 1843       901.34      791.042
 1844      901.622      791.043
 1845      901.904      791.045
 1846      902.185      791.049
 1847      902.466       791.04
 1848      902.747      791.046
 1849      903.028      791.032
 1850      903.309      791.012
 1851      903.589      791.007
 1852       903.87      790.982
 1853       904.15      790.951
 1854       904.43      790.931
 1855       904.71      790.891
 1856      904.989      790.824
 1857      905.269      790.754
 1858      905.548      790.696
 1859      905.827       790.63
 1860      906.106      790.576
 1861      906.385      790.545
 1862      906.664      790.498
 1863      906.942      790.449
 1864      907.221      790.423
 1865      907.499      790.372
 1866      907.777      790.313
 1867      908.055      790.292
 1868      908.332      790.271
 1869       908.61      790.234
 1870      908.887        790.2
 1871      909.164      790.184
 1872      909.441       790.16
 1873      909.718      790.164
 1874      909.995      790.192
 1875      910.271      790.213
 1876      910.548      790.216
 1877      910.824      790.208
 1878        911.1      790.225
 1879      911.375      790.251
 1880      911.651      790.268
 1881      911.927      790.266
 1882      912.202      790.246
 1883      912.477      790.219
 1884      912.752      790.196
 1885      913.027      790.201
 1886      913.301      790.227
 1887      913.576      790.234
 1888       913.85      790.243
 1889      914.124      790.258
 1890      914.398      790.279
 1891      914.672      790.297
 1892      914.945      790.303
 1893      915.219      790.299
 1894      915.492      790.278
 1895      915.765      790.248
 1896      916.038      790.245
 1897      916.311      790.275
 1898      916.583       790.32
 1899      916.856      790.324
 1900      917.128      790.299
 1901        917.4      790.283
 1902      917.672       790.28
 1903      917.944      790.287
 1904      918.215      790.309
 1905      918.486      790.327
 1906      918.758      790.338
 1907      919.029      790.348
 1908      919.299      790.364
 1909       919.57      790.376
 1910      919.841      790.378
 1911      920.111      790.384
 1912      920.381      790.395
 1913      920.651      790.384
 1914      920.921      790.352
 1915      921.191      790.345
 1916       921.46      790.354
 1917      921.729      790.361
 1918      921.999      790.372
 1919      922.268      790.385
 1920      922.536      790.373
 1921      922.805      790.346
 1922      923.073      790.331
 1923      923.342      790.311
 1924       923.61        790.3
 1925      923.878      790.298
 1926      924.145      790.321
 1927      924.413      790.341
 1928       924.68      790.341
 1929      924.948      790.339
 1930      925.215      790.332
 1931      925.482      790.329
 1932      925.748      790.324
 1933      926.015      790.318
 1934      926.281      790.327
 1935      926.547      790.341
 1936      926.813       790.37
 1937      927.079      790.395
 1938      927.345      790.407
 1939       927.61       790.42
 1940      927.876      790.428
 1941      928.141       790.42
 1942      928.406      790.413
 1943      928.671      790.417
 1944      928.935      790.416
 1945        929.2      790.438
 1946      929.464      790.457
 1947      929.728      790.453
 1948      929.992      790.458
 1949      930.256      790.463
 1950       930.52      790.456
 1951      930.783      790.445
 1952      931.046      790.444
 1953      931.309      790.456
 1954      931.572      790.493
 1955      931.835      790.531
 1956      932.097      790.549
 1957       932.36      790.559
 1958      932.622      790.583
 1959      932.884      790.604
 1960      933.146      790.618
 1961      933.408      790.635
 1962      933.669       790.64
 1963       933.93      790.653
 1964      934.192      790.665
 1965      934.453      790.664
 1966      934.713      790.678
 1967      934.974      790.694
 1968      935.234      790.701
 1969      935.495      790.711
 1970      935.755      790.715
 1971      936.015      790.708
 1972      936.274      790.694
 1973      936.534      790.688
 1974      936.793      790.674
 1975      937.053       790.66
 1976      937.312      790.662
 1977      937.571      790.683
 1978      937.829      790.704
 1979      938.088      790.698
 1980      938.346      790.691
 1981      938.604      790.682
 1982      938.862      790.677
 1983       939.12      790.701
 1984      939.378      790.741
 1985      939.635      790.772
 1986      939.893      790.798
 1987       940.15      790.828
 1988      940.407      790.866
 1989      940.663      790.887
 1990       940.92      790.872
 1991      941.176      790.856
 1992      941.433      790.851
 1993      941.689      790.854
 1994      941.944       790.86
 1995        942.2      790.867
 1996      942.456      790.862
 1997      942.711      790.854
 1998      942.966      790.841
 1999      943.221      790.819
 2000      943.476      790.814
 2001      943.731      790.819
 2002      943.985      790.827
 2003      944.239      790.837
 2004      944.493      790.831
 2005      944.747      790.804
 2006      945.001      790.795
 2007      945.255        790.8
 2008      945.508      790.796
 2009      945.761      790.781
 2010      946.014      790.763
 2011      946.267      790.737
 2012       946.52      790.702
 2013      946.772      790.669
 2014      947.025      790.647
 2015      947.277      790.635
 2016      947.529      790.615
 2017      947.781      790.591
 2018      948.032      790.589
 2019      948.284      790.599
 2020      948.535      790.605
 2021      948.786      790.605
 2022      949.037      790.593
 2023      949.288      790.582
 2024      949.538       790.58
 2025      949.789      790.566
 2026      950.039      790.549
 2027      950.289      790.519
 2028      950.539      790.489
 2029      950.788      790.486
 2030      951.038      790.487
 2031      951.287      790.498
 2032      951.536      790.525
 2033      951.785      790.554
 2034      952.034       790.58
 2035      952.282      790.589
 2036      952.531      790.594
 2037      952.779      790.581
 2038      953.027      790.554
 2039      953.275      790.539
 2040      953.523      790.536
 2041       953.77      790.538
 2042      954.017      790.575
 2043      954.264       790.61
 2044      954.511      790.612
 2045      954.758      790.604
 2046      955.005      790.571
 2047      955.251       790.53
