scansci Spectrometer Data File
--- Measurement Setting ---
Type: Sample Spectrum
Date: Fri Nov 22 17:55:14 2024
User: (Reserved by scansci)
Serial: (Reserved by scansci)
Channel: No. 11
Integration Time: 36
Average: 30
Boxcar: 50
Electrical Dark: No-corrected
Time Normalize: (Reserved by scansci)
Dual-beam: (Reserved by scansci)
Reference Ch: (Reserved by scansci)
--- Measurement Data ---
Pixel   Wavelength   Intensity
    0        162.5      800.563
    1      162.985      800.537
    2      163.469      800.521
    3      163.954      800.505
    4      164.439      800.481
    5      164.923      800.451
    6      165.408      800.439
    7      165.892      800.455
    8      166.377      800.473
    9      166.861      800.466
   10      167.345      800.433
   11       167.83      800.411
   12      168.314      800.394
   13      168.798      800.398
   14      169.282      800.422
   15      169.766      800.441
   16       170.25      800.462
   17      170.734      800.498
   18      171.218      800.537
   19      171.702      800.566
   20      172.185      800.573
   21      172.669      800.599
   22      173.153      800.642
   23      173.636      800.667
   24       174.12      800.667
   25      174.603      800.679
   26      175.087      800.722
   27       175.57      800.764
   28      176.053       800.79
   29      176.537      800.834
   30       177.02      800.881
   31      177.503      800.913
   32      177.986      800.927
   33      178.469      800.942
   34      178.952      800.975
   35      179.435      801.014
   36      179.918      801.035
   37      180.401      801.035
   38      180.884       801.04
   39      181.366      801.047
   40      181.849      801.065
   41      182.332       801.08
   42      182.814      801.089
   43      183.297      801.094
   44      183.779      801.082
   45      184.262      801.079
   46      184.744      801.089
   47      185.226      801.096
   48      185.708      801.104
   49      186.191      801.125
   50      186.673      801.148
   51      187.155      801.206
   52      187.637      801.213
   53      188.119      801.206
   54        188.6      801.199
   55      189.082      801.174
   56      189.564      801.123
   57      190.046      801.075
   58      190.527      801.055
   59      191.009      801.055
   60      191.491      801.053
   61      191.972       801.06
   62      192.454      801.111
   63      192.935      801.168
   64      193.416      801.204
   65      193.897      801.226
   66      194.379      801.227
   67       194.86      801.214
   68      195.341      801.219
   69      195.822      801.251
   70      196.303      801.284
   71      196.784      801.298
   72      197.265      801.303
   73      197.746      801.321
   74      198.226      801.342
   75      198.707      801.353
   76      199.188      801.315
   77      199.668      801.277
   78      200.149      801.297
   79      200.629      801.345
   80       201.11      801.387
   81       201.59      801.422
   82       202.07      801.458
   83       202.55      801.499
   84      203.031       801.53
   85      203.511      801.529
   86      203.991      801.498
   87      204.471      801.456
   88      204.951      801.425
   89      205.431       801.41
   90       205.91      801.438
   91       206.39      801.505
   92       206.87       801.57
   93      207.349       801.63
   94      207.829      801.678
   95      208.309      801.711
   96      208.788      801.741
   97      209.267      801.763
   98      209.747      801.772
   99      210.226      801.776
  100      210.705      801.777
  101      211.185      801.799
  102      211.664      801.822
  103      212.143      801.855
  104      212.622      801.888
  105      213.101      801.917
  106      213.579      801.948
  107      214.058      801.975
  108      214.537      801.985
  109      215.016      801.997
  110      215.494      802.018
  111      215.973      802.053
  112      216.452      802.095
  113       216.93      802.147
  114      217.408      802.177
  115      217.887      802.195
  116      218.365      802.217
  117      218.843      802.239
  118      219.321      802.233
  119      219.799      802.217
  120      220.278      802.234
  121      220.755      802.256
  122      221.233      802.251
  123      221.711      802.235
  124      222.189      802.226
  125      222.667      802.233
  126      223.144       802.25
  127      223.622      802.241
  128        224.1       802.21
  129      224.577      802.203
  130      225.055      802.186
  131      225.532      802.144
  132      226.009      802.108
  133      226.486      802.078
  134      226.964      802.045
  135      227.441      801.995
  136      227.918      801.947
  137      228.395      801.925
  138      228.872      801.926
  139      229.349      801.932
  140      229.826      801.925
  141      230.302      801.901
  142      230.779      801.883
  143      231.256      801.877
  144      231.732      801.879
  145      232.209      801.898
  146      232.685      801.894
  147      233.162      801.877
  148      233.638      801.867
  149      234.114      801.868
  150       234.59      801.855
  151      235.066      801.832
  152      235.543      801.817
  153      236.019      801.823
  154      236.495      801.842
  155       236.97      801.862
  156      237.446      801.883
  157      237.922      801.918
  158      238.398      801.961
  159      238.873      801.992
  160      239.349      802.031
  161      239.824      802.074
  162        240.3      802.099
  163      240.775      802.091
  164      241.251      802.079
  165      241.726      802.081
  166      242.201      802.105
  167      242.676      802.129
  168      243.151      802.141
  169      243.626      802.139
  170      244.101      802.135
  171      244.576       802.13
  172      245.051       802.12
  173      245.526      802.115
  174          246      802.121
  175      246.475      802.135
  176       246.95      802.131
  177      247.424      802.124
  178      247.899      802.121
  179      248.373      802.101
  180      248.847       802.06
  181      249.321      802.023
  182      249.796      801.996
  183       250.27      801.986
  184      250.744       802.01
  185      251.218       802.04
  186      251.692      802.076
  187      252.166      802.132
  188      252.639      802.178
  189      253.113      802.199
  190      253.587      802.212
  191       254.06      802.188
  192      254.534      802.145
  193      255.007      802.123
  194      255.481      802.096
  195      255.954      802.082
  196      256.427      802.085
  197      256.901      802.087
  198      257.374      802.107
  199      257.847      802.155
  200       258.32      802.207
  201      258.793      802.262
  202      259.266      802.298
  203      259.739      802.307
  204      260.211      802.291
  205      260.684      802.282
  206      261.157      802.286
  207      261.629      802.305
  208      262.102      802.335
  209      262.574      802.369
  210      263.046      802.383
  211      263.519      802.402
  212      263.991      802.425
  213      264.463      802.441
  214      264.935      802.446
  215      265.407      802.452
  216      265.879       802.45
  217      266.351      802.429
  218      266.823       802.41
  219      267.295      802.434
  220      267.766      802.479
  221      268.238      802.503
  222       268.71      802.516
  223      269.181      802.541
  224      269.653      802.554
  225      270.124      802.571
  226      270.595      802.586
  227      271.066      802.577
  228      271.538       802.57
  229      272.009      802.588
  230       272.48      802.608
  231      272.951      802.626
  232      273.422       802.66
  233      273.892      802.692
  234      274.363      802.727
  235      274.834      802.762
  236      275.305      802.797
  237      275.775      802.826
  238      276.246      802.853
  239      276.716      802.882
  240      277.186      802.886
  241      277.657      802.888
  242      278.127      802.914
  243      278.597      802.968
  244      279.067      803.023
  245      279.537      803.052
  246      280.007      803.074
  247      280.477       803.11
  248      280.947      803.136
  249      281.417      803.172
  250      281.886      803.201
  251      282.356      803.223
  252      282.825      803.244
  253      283.295      803.252
  254      283.764      803.246
  255      284.234      803.243
  256      284.703      803.255
  257      285.172      803.258
  258      285.641      803.256
  259       286.11      803.263
  260      286.579      803.276
  261      287.048      803.282
  262      287.517      803.265
  263      287.986      803.263
  264      288.454      803.284
  265      288.923      803.317
  266      289.392      803.356
  267       289.86       803.38
  268      290.329      803.428
  269      290.797      803.501
  270      291.265      803.546
  271      291.734      803.563
  272      292.202      803.578
  273       292.67      803.587
  274      293.138      803.582
  275      293.606      803.585
  276      294.074      803.608
  277      294.541      803.651
  278      295.009       803.71
  279      295.477      803.757
  280      295.944      803.789
  281      296.412       803.83
  282      296.879      803.863
  283      297.347      803.917
  284      297.814      803.971
  285      298.281      803.977
  286      298.749      803.991
  287      299.216      804.032
  288      299.683      804.068
  289       300.15      804.094
  290      300.616      804.131
  291      301.083      804.169
  292       301.55      804.213
  293      302.017      804.266
  294      302.483       804.31
  295       302.95      804.362
  296      303.416      804.397
  297      303.883       804.43
  298      304.349      804.466
  299      304.815      804.496
  300      305.281      804.517
  301      305.748      804.542
  302      306.214      804.552
  303       306.68      804.553
  304      307.146      804.578
  305      307.611      804.612
  306      308.077      804.645
  307      308.543      804.667
  308      309.008      804.658
  309      309.474      804.648
  310      309.939      804.647
  311      310.405      804.665
  312       310.87      804.679
  313      311.335      804.709
  314        311.8      804.755
  315      312.266      804.806
  316      312.731      804.861
  317      313.196      804.911
  318       313.66      804.968
  319      314.125      805.015
  320       314.59       805.03
  321      315.055      805.031
  322      315.519      805.014
  323      315.984      805.001
  324      316.448      804.987
  325      316.913      804.992
  326      317.377      805.011
  327      317.841      805.058
  328      318.305       805.11
  329      318.769      805.166
  330      319.233      805.212
  331      319.697      805.237
  332      320.161      805.293
  333      320.625      805.378
  334      321.089      805.451
  335      321.552      805.527
  336      322.016      805.598
  337      322.479      805.661
  338      322.943      805.721
  339      323.406      805.771
  340      323.869      805.806
  341      324.333       805.85
  342      324.796      805.904
  343      325.259      805.941
  344      325.722      805.948
  345      326.185      805.954
  346      326.647      805.982
  347       327.11      806.023
  348      327.573       806.06
  349      328.035      806.108
  350      328.498      806.158
  351       328.96      806.188
  352      329.423       806.22
  353      329.885      806.261
  354      330.347        806.3
  355       330.81      806.344
  356      331.272      806.378
  357      331.734      806.438
  358      332.196      806.532
  359      332.657      806.616
  360      333.119      806.695
  361      333.581       806.76
  362      334.043      806.807
  363      334.504      806.861
  364      334.966      806.909
  365      335.427      806.951
  366      335.888      806.982
  367       336.35      806.991
  368      336.811       807.02
  369      337.272       807.05
  370      337.733      807.057
  371      338.194      807.095
  372      338.655      807.166
  373      339.115      807.239
  374      339.576      807.308
  375      340.037      807.384
  376      340.497      807.439
  377      340.958      807.462
  378      341.418      807.486
  379      341.879      807.518
  380      342.339      807.562
  381      342.799      807.627
  382      343.259      807.702
  383      343.719      807.767
  384      344.179      807.792
  385      344.639      807.826
  386      345.099      807.908
  387      345.559      807.997
  388      346.018      808.071
  389      346.478      808.143
  390      346.937      808.214
  391      347.397      808.287
  392      347.856      808.372
  393      348.315      808.447
  394      348.774      808.516
  395      349.234      808.581
  396      349.693      808.645
  397      350.152      808.742
  398       350.61      808.844
  399      351.069      808.948
  400      351.528       809.04
  401      351.987      809.107
  402      352.445      809.157
  403      352.904      809.236
  404      353.362       809.34
  405       353.82      809.424
  406      354.279      809.513
  407      354.737      809.612
  408      355.195      809.718
  409      355.653      809.836
  410      356.111      809.953
  411      356.569      810.057
  412      357.027       810.15
  413      357.484      810.255
  414      357.942      810.339
  415      358.399      810.417
  416      358.857      810.486
  417      359.314      810.543
  418      359.772      810.615
  419      360.229      810.691
  420      360.686      810.768
  421      361.143       810.87
  422        361.6      810.998
  423      362.057      811.127
  424      362.514      811.262
  425      362.971      811.404
  426      363.427      811.524
  427      363.884      811.631
  428       364.34      811.713
  429      364.797      811.796
  430      365.253      811.889
  431      365.709      811.997
  432      366.166      812.124
  433      366.622      812.225
  434      367.078      812.306
  435      367.534      812.392
  436       367.99      812.477
  437      368.445      812.577
  438      368.901      812.678
  439      369.357       812.78
  440      369.812      812.887
  441      370.268      813.003
  442      370.723      813.128
  443      371.179      813.269
  444      371.634      813.415
  445      372.089      813.545
  446      372.544      813.667
  447      372.999      813.799
  448      373.454      813.925
  449      373.909       814.05
  450      374.364      814.183
  451      374.818      814.299
  452      375.273      814.432
  453      375.727      814.572
  454      376.182      814.717
  455      376.636      814.874
  456       377.09      815.041
  457      377.545      815.209
  458      377.999      815.346
  459      378.453      815.464
  460      378.907      815.596
  461      379.361      815.738
  462      379.814        815.9
  463      380.268      816.058
  464      380.722       816.22
  465      381.175      816.376
  466      381.629      816.531
  467      382.082      816.702
  468      382.535      816.893
  469      382.989      817.069
  470      383.442      817.235
  471      383.895      817.416
  472      384.348      817.596
  473      384.801      817.775
  474      385.253      817.963
  475      385.706      818.165
  476      386.159      818.387
  477      386.611      818.628
  478      387.064      818.888
  479      387.516      819.148
  480      387.968      819.388
  481      388.421      819.629
  482      388.873      819.863
  483      389.325      820.108
  484      389.777      820.378
  485      390.229      820.667
  486      390.681      820.985
  487      391.132      821.318
  488      391.584      821.647
  489      392.035      821.984
  490      392.487      822.328
  491      392.938      822.696
  492       393.39      823.075
  493      393.841      823.457
  494      394.292      823.905
  495      394.743      824.416
  496      395.194      824.946
  497      395.645      825.491
  498      396.096      826.044
  499      396.546      826.634
  500      396.997      827.264
  501      397.448      827.956
  502      397.898      828.717
  503      398.349      829.539
  504      398.799      830.414
  505      399.249      831.359
  506      399.699      832.436
  507      400.149      833.624
  508      400.599      834.902
  509      401.049      836.297
  510      401.499      837.827
  511      401.949      839.478
  512      402.398       841.26
  513      402.848      843.229
  514      403.297      845.403
  515      403.747      847.789
  516      404.196       850.41
  517      404.645      853.313
  518      405.094       856.53
  519      405.543      860.087
  520      405.992      864.006
  521      406.441      868.278
  522       406.89      872.897
  523      407.339       877.94
  524      407.787      883.467
  525      408.236      889.508
  526      408.684      896.182
  527      409.132      903.468
  528      409.581      911.375
  529      410.029      920.052
  530      410.477      929.572
  531      410.925      939.996
  532      411.373      951.374
  533      411.821      963.798
  534      412.269      977.424
  535      412.716      992.313
  536      413.164      1008.43
  537      413.611      1025.96
  538      414.059      1045.02
  539      414.506       1065.7
  540      414.953      1088.42
  541        415.4      1113.32
  542      415.847      1140.35
  543      416.294      1169.59
  544      416.741      1201.28
  545      417.188      1235.94
  546      417.635      1273.78
  547      418.081      1315.02
  548      418.528      1360.05
  549      418.974      1408.87
  550      419.421      1461.79
  551      419.867      1519.55
  552      420.313      1582.66
  553      420.759      1650.85
  554      421.205      1723.42
  555      421.651      1800.05
  556      422.097      1881.61
  557      422.543      1968.67
  558      422.989      2061.26
  559      423.434      2159.54
  560       423.88      2264.36
  561      424.325       2376.8
  562       424.77      2497.02
  563      425.216      2625.63
  564      425.661      2763.44
  565      426.106      2909.76
  566      426.551      3062.99
  567      426.996      3217.04
  568       427.44      3371.07
  569      427.885       3525.1
  570       428.33      3679.13
  571      428.774      3833.16
  572      429.219      3987.17
  573      429.663      4141.18
  574      430.107      4295.18
  575      430.551      4449.17
  576      430.996      4603.15
  577       431.44      4757.12
  578      431.883      4911.07
  579      432.327      5065.02
  580      432.771      5218.95
  581      433.215      5372.89
  582      433.658      5526.83
  583      434.102      5680.76
  584      434.545      5834.67
  585      434.988      5988.57
  586      435.431      6142.46
  587      435.875      6296.32
  588      436.318      6450.14
  589      436.761      6603.95
  590      437.203      6757.76
  591      437.646      6911.55
  592      438.089      7065.32
  593      438.531      7219.08
  594      438.974      7372.84
  595      439.416      7526.56
  596      439.859       7680.2
  597      440.301      7833.83
  598      440.743      7987.45
  599      441.185      8141.03
  600      441.627      8293.13
  601      442.069      8439.85
  602       442.51      8581.24
  603      442.952      8717.84
  604      443.394      8850.08
  605      443.835      8978.01
  606      444.277      9101.25
  607      444.718      9220.09
  608      445.159      9335.29
  609        445.6      9447.02
  610      446.041      9555.46
  611      446.482       9660.2
  612      446.923      9761.13
  613      447.364      9858.08
  614      447.804      9951.04
  615      448.245      10040.7
  616      448.685      10127.1
  617      449.126      10210.3
  618      449.566      10290.4
  619      450.006      10367.4
  620      450.447      10440.8
  621      450.887      10510.9
  622      451.326      10577.8
  623      451.766      10641.1
  624      452.206        10701
  625      452.646      10757.9
  626      453.085      10811.7
  627      453.525      10862.3
  628      453.964        10910
  629      454.403      10954.8
  630      454.843      10996.3
  631      455.282      11034.6
  632      455.721      11069.8
  633       456.16        11102
  634      456.599      11131.2
  635      457.037      11157.2
  636      457.476      11180.2
  637      457.915      11200.2
  638      458.353      11217.2
  639      458.791        11231
  640       459.23      11241.6
  641      459.668      11248.9
  642      460.106      11252.7
  643      460.544      11253.1
  644      460.982      11250.1
  645       461.42      11243.5
  646      461.857        11233
  647      462.295      11218.4
  648      462.733      11199.6
  649       463.17        11176
  650      463.607      11147.8
  651      464.045      11114.6
  652      464.482      11075.7
  653      464.919      11030.8
  654      465.356      10980.1
  655      465.793      10924.2
  656       466.23      10863.5
  657      466.666      10797.3
  658      467.103      10725.1
  659      467.539      10646.8
  660      467.976      10562.2
  661      468.412      10470.4
  662      468.848      10370.6
  663      469.284      10262.4
  664       469.72      10145.4
  665      470.156      10018.5
  666      470.592       9882.7
  667      471.028      9739.49
  668      471.464      9595.07
  669      471.899      9450.25
  670      472.335         9305
  671       472.77      9159.32
  672      473.205      9013.22
  673      473.641      8866.75
  674      474.076      8719.96
  675      474.511      8572.89
  676      474.946      8425.52
  677       475.38      8277.82
  678      475.815      8129.83
  679       476.25      7981.59
  680      476.684      7833.08
  681      477.119      7684.29
  682      477.553      7535.24
  683      477.987      7385.97
  684      478.421      7236.46
  685      478.856      7086.74
  686      479.289      6936.82
  687      479.723      6786.71
  688      480.157      6636.42
  689      480.591      6485.95
  690      481.024      6335.31
  691      481.458      6184.53
  692      481.891      6033.64
  693      482.324      5882.58
  694      482.758      5731.39
  695      483.191      5580.06
  696      483.624      5428.58
  697      484.057      5276.99
  698      484.489       5125.3
  699      484.922       4973.5
  700      485.355      4821.58
  701      485.787      4671.02
  702       486.22      4525.72
  703      486.652      4385.59
  704      487.084      4250.12
  705      487.516      4118.88
  706      487.948      3991.78
  707       488.38      3869.24
  708      488.812      3750.91
  709      489.244      3636.04
  710      489.676      3524.45
  711      490.107      3415.96
  712      490.539      3310.96
  713       490.97      3209.58
  714      491.401      3112.01
  715      491.832       3018.2
  716      492.263      2927.48
  717      492.694      2839.65
  718      493.125       2754.8
  719      493.556      2672.77
  720      493.987      2593.47
  721      494.417      2517.34
  722      494.848      2444.16
  723      495.278      2373.86
  724      495.708      2306.68
  725      496.139      2242.37
  726      496.569       2180.6
  727      496.999       2121.4
  728      497.429      2064.73
  729      497.858      2010.27
  730      498.288      1958.11
  731      498.718      1908.49
  732      499.147      1861.19
  733      499.577      1815.97
  734      500.006      1772.83
  735      500.435      1731.64
  736      500.864      1692.31
  737      501.293      1654.79
  738      501.722      1619.01
  739      502.151      1584.87
  740       502.58      1552.33
  741      503.008      1521.26
  742      503.437      1491.52
  743      503.865      1463.08
  744      504.293      1435.93
  745      504.722      1409.89
  746       505.15      1384.94
  747      505.578      1361.01
  748      506.006      1337.94
  749      506.434      1315.74
  750      506.861      1294.44
  751      507.289         1274
  752      507.716      1254.35
  753      508.144      1235.51
  754      508.571      1217.41
  755      508.998         1200
  756      509.425      1183.33
  757      509.852      1167.42
  758      510.279       1152.1
  759      510.706      1137.28
  760      511.133         1123
  761       511.56      1109.34
  762      511.986      1096.27
  763      512.412      1083.68
  764      512.839      1071.53
  765      513.265      1059.89
  766      513.691      1048.84
  767      514.117       1038.3
  768      514.543      1028.22
  769      514.969      1018.56
  770      515.395      1009.29
  771       515.82      1000.46
  772      516.246       992.05
  773      516.671      984.042
  774      517.096      976.368
  775      517.522      968.999
  776      517.947      961.911
  777      518.372       955.11
  778      518.797      948.645
  779      519.222      942.481
  780      519.646      936.565
  781      520.071      930.921
  782      520.495      925.566
  783       520.92      920.481
  784      521.344       915.61
  785      521.768      910.968
  786      522.192      906.537
  787      522.616      902.303
  788       523.04      898.253
  789      523.464      894.362
  790      523.888      890.642
  791      524.311       887.09
  792      524.735       883.67
  793      525.158      880.357
  794      525.581      877.218
  795      526.005      874.238
  796      526.428      871.394
  797      526.851      868.685
  798      527.274      866.073
  799      527.696      863.541
  800      528.119      861.124
  801      528.542      858.827
  802      528.964      856.604
  803      529.386       854.46
  804      529.809       852.41
  805      530.231       850.45
  806      530.653      848.582
  807      531.075      846.791
  808      531.497      845.063
  809      531.918      843.422
  810       532.34      841.865
  811      532.761      840.388
  812      533.183      838.997
  813      533.604      837.673
  814      534.025      836.406
  815      534.447      835.185
  816      534.868       833.99
  817      535.289      832.821
  818      535.709      831.675
  819       536.13      830.581
  820      536.551      829.534
  821      536.971      828.521
  822      537.392      827.521
  823      537.812      826.561
  824      538.232      825.677
  825      538.652      824.844
  826      539.072      824.031
  827      539.492      823.249
  828      539.912      822.488
  829      540.331      821.769
  830      540.751      821.084
  831       541.17      820.416
  832       541.59       819.75
  833      542.009      819.098
  834      542.428      818.481
  835      542.847      817.906
  836      543.266      817.373
  837      543.685       816.88
  838      544.104      816.386
  839      544.522      815.891
  840      544.941      815.413
  841      545.359      814.942
  842      545.778      814.495
  843      546.196      814.096
  844      546.614      813.718
  845      547.032      813.342
  846       547.45       812.98
  847      547.867      812.643
  848      548.285      812.319
  849      548.703      811.968
  850       549.12      811.594
  851      549.538      811.254
  852      549.955       810.97
  853      550.372      810.718
  854      550.789      810.462
  855      551.206      810.202
  856      551.623      809.943
  857      552.039      809.705
  858      552.456      809.486
  859      552.873      809.261
  860      553.289      809.021
  861      553.705      808.787
  862      554.121      808.563
  863      554.537       808.36
  864      554.953      808.172
  865      555.369          808
  866      555.785      807.832
  867      556.201      807.659
  868      556.616      807.498
  869      557.032       807.34
  870      557.447      807.168
  871      557.862      806.995
  872      558.277      806.831
  873      558.692      806.672
  874      559.107      806.551
  875      559.522      806.472
  876      559.937      806.401
  877      560.351      806.322
  878      560.766      806.232
  879       561.18      806.125
  880      561.595      806.032
  881      562.009      805.959
  882      562.423      805.868
  883      562.837      805.764
  884       563.25      805.638
  885      563.664      805.511
  886      564.078      805.392
  887      564.491      805.288
  888      564.905      805.172
  889      565.318      805.054
  890      565.731      804.965
  891      566.144      804.889
  892      566.557      804.822
  893       566.97      804.737
  894      567.383      804.649
  895      567.795      804.553
  896      568.208      804.443
  897       568.62      804.346
  898      569.033      804.267
  899      569.445      804.203
  900      569.857      804.134
  901      570.269      804.063
  902      570.681      803.985
  903      571.093      803.911
  904      571.504      803.865
  905      571.916      803.832
  906      572.327      803.782
  907      572.739        803.7
  908       573.15      803.618
  909      573.561      803.548
  910      573.972      803.475
  911      574.383      803.408
  912      574.794      803.319
  913      575.204      803.197
  914      575.615      803.088
  915      576.025       802.99
  916      576.436      802.892
  917      576.846      802.808
  918      577.256      802.748
  919      577.666      802.714
  920      578.076      802.693
  921      578.486      802.672
  922      578.896      802.631
  923      579.305      802.586
  924      579.715      802.533
  925      580.124      802.454
  926      580.533      802.382
  927      580.942      802.324
  928      581.351      802.252
  929       581.76      802.176
  930      582.169      802.104
  931      582.578      802.033
  932      582.986      801.976
  933      583.395      801.933
  934      583.803      801.898
  935      584.212       801.87
  936       584.62      801.826
  937      585.028      801.771
  938      585.436        801.7
  939      585.843      801.669
  940      586.251      801.668
  941      586.659      801.648
  942      587.066      801.617
  943      587.474      801.591
  944      587.881       801.55
  945      588.288      801.496
  946      588.695      801.421
  947      589.102      801.357
  948      589.509      801.311
  949      589.915      801.256
  950      590.322       801.22
  951      590.728      801.212
  952      591.135      801.193
  953      591.541      801.161
  954      591.947      801.133
  955      592.353      801.104
  956      592.759      801.056
  957      593.165      801.011
  958      593.571      800.971
  959      593.976      800.914
  960      594.382      800.844
  961      594.787      800.772
  962      595.192      800.754
  963      595.597      800.782
  964      596.002      800.779
  965      596.407      800.772
  966      596.812      800.745
  967      597.217       800.71
  968      597.621      800.678
  969      598.026      800.623
  970       598.43       800.55
  971      598.834      800.483
  972      599.238      800.423
  973      599.642       800.36
  974      600.046      800.313
  975       600.45       800.26
  976      600.854      800.175
  977      601.257      800.088
  978      601.661      800.041
  979      602.064      800.018
  980      602.467      799.999
  981       602.87      799.951
  982      603.273      799.878
  983      603.676      799.826
  984      604.079      799.784
  985      604.481      799.753
  986      604.884      799.721
  987      605.286      799.671
  988      605.689      799.614
  989      606.091      799.565
  990      606.493      799.548
  991      606.895      799.541
  992      607.297      799.509
  993      607.698      799.451
  994        608.1      799.385
  995      608.501       799.35
  996      608.903      799.337
  997      609.304       799.33
  998      609.705      799.309
  999      610.106      799.267
 1000      610.507      799.226
 1001      610.908      799.192
 1002      611.308      799.153
 1003      611.709      799.122
 1004      612.109       799.09
 1005       612.51      799.021
 1006       612.91      798.928
 1007       613.31       798.87
 1008       613.71      798.859
 1009       614.11      798.877
 1010       614.51      798.873
 1011      614.909      798.822
 1012      615.309      798.749
 1013      615.708      798.703
 1014      616.108      798.688
 1015      616.507      798.671
 1016      616.906      798.656
 1017      617.305      798.648
 1018      617.704      798.637
 1019      618.102      798.624
 1020      618.501      798.603
 1021      618.899      798.566
 1022      619.298      798.522
 1023      619.696      798.486
 1024      620.094      798.459
 1025      620.492      798.445
 1026       620.89      798.439
 1027      621.288      798.431
 1028      621.686      798.405
 1029      622.083      798.393
 1030       622.48      798.397
 1031      622.878      798.393
 1032      623.275      798.398
 1033      623.672      798.414
 1034      624.069      798.424
 1035      624.466      798.412
 1036      624.863      798.385
 1037      625.259      798.374
 1038      625.656      798.359
 1039      626.052      798.341
 1040      626.448      798.295
 1041      626.844       798.22
 1042      627.241      798.157
 1043      627.636       798.12
 1044      628.032      798.098
 1045      628.428       798.08
 1046      628.823      798.065
 1047      629.219       798.07
 1048      629.614      798.057
 1049      630.009      798.009
 1050      630.404      797.958
 1051      630.799      797.904
 1052      631.194      797.876
 1053      631.589      797.889
 1054      631.984      797.881
 1055      632.378      797.853
 1056      632.772      797.841
 1057      633.167      797.848
 1058      633.561      797.845
 1059      633.955       797.83
 1060      634.349      797.809
 1061      634.743      797.798
 1062      635.136       797.81
 1063       635.53      797.777
 1064      635.923      797.703
 1065      636.316      797.636
 1066       636.71      797.559
 1067      637.103        797.5
 1068      637.496      797.464
 1069      637.888      797.457
 1070      638.281      797.467
 1071      638.674      797.496
 1072      639.066      797.522
 1073      639.459      797.532
 1074      639.851      797.538
 1075      640.243      797.521
 1076      640.635      797.485
 1077      641.027      797.463
 1078      641.419       797.45
 1079       641.81      797.417
 1080      642.202      797.372
 1081      642.593      797.339
 1082      642.984      797.326
 1083      643.375      797.323
 1084      643.766      797.297
 1085      644.157      797.252
 1086      644.548       797.21
 1087      644.939      797.179
 1088      645.329      797.164
 1089       645.72      797.157
 1090       646.11      797.159
 1091        646.5      797.142
 1092       646.89      797.118
 1093       647.28      797.106
 1094       647.67      797.098
 1095       648.06      797.124
 1096      648.449      797.117
 1097      648.839      797.062
 1098      649.228      797.002
 1099      649.617      796.947
 1100      650.007      796.907
 1101      650.396      796.881
 1102      650.784      796.891
 1103      651.173      796.914
 1104      651.562      796.931
 1105       651.95      796.959
 1106      652.339      796.978
 1107      652.727      796.993
 1108      653.115      796.999
 1109      653.503      796.999
 1110      653.891      796.977
 1111      654.279      796.963
 1112      654.666       796.97
 1113      655.054      797.014
 1114      655.441      797.053
 1115      655.828      797.063
 1116      656.216      797.073
 1117      656.603      797.066
 1118      656.989      797.044
 1119      657.376      797.033
 1120      657.763      797.017
 1121      658.149       796.99
 1122      658.536      796.967
 1123      658.922      796.962
 1124      659.308      796.956
 1125      659.694      796.941
 1126       660.08      796.912
 1127      660.466      796.876
 1128      660.852      796.845
 1129      661.237      796.826
 1130      661.623      796.826
 1131      662.008      796.823
 1132      662.393      796.799
 1133      662.778      796.766
 1134      663.163      796.709
 1135      663.548       796.64
 1136      663.933      796.603
 1137      664.317      796.599
 1138      664.702      796.594
 1139      665.086      796.592
 1140       665.47      796.627
 1141      665.854      796.674
 1142      666.238      796.695
 1143      666.622      796.707
 1144      667.006      796.693
 1145      667.389      796.664
 1146      667.773       796.65
 1147      668.156      796.625
 1148      668.539      796.578
 1149      668.923      796.531
 1150      669.305      796.496
 1151      669.688      796.484
 1152      670.071      796.489
 1153      670.454      796.442
 1154      670.836      796.362
 1155      671.218      796.316
 1156      671.601      796.272
 1157      671.983      796.227
 1158      672.365      796.242
 1159      672.747      796.317
 1160      673.128      796.354
 1161       673.51      796.371
 1162      673.891      796.386
 1163      674.273      796.394
 1164      674.654       796.42
 1165      675.035      796.455
 1166      675.416      796.481
 1167      675.797       796.53
 1168      676.177      796.588
 1169      676.558      796.633
 1170      676.938      796.645
 1171      677.319      796.643
 1172      677.699      796.625
 1173      678.079       796.61
 1174      678.459      796.589
 1175      678.839      796.561
 1176      679.219      796.532
 1177      679.598      796.512
 1178      679.978      796.484
 1179      680.357      796.446
 1180      680.736      796.412
 1181      681.115      796.404
 1182      681.494      796.393
 1183      681.873       796.36
 1184      682.252      796.308
 1185       682.63      796.271
 1186      683.009      796.256
 1187      683.387      796.253
 1188      683.765      796.259
 1189      684.143      796.277
 1190      684.521      796.274
 1191      684.899      796.249
 1192      685.277      796.213
 1193      685.654       796.17
 1194      686.032      796.117
 1195      686.409      796.068
 1196      686.786      796.045
 1197      687.163       796.04
 1198       687.54       796.04
 1199      687.917      796.037
 1200      688.294      796.035
 1201       688.67       796.04
 1202      689.046       796.04
 1203      689.423      796.043
 1204      689.799      796.042
 1205      690.175      796.011
 1206      690.551      795.971
 1207      690.927      795.956
 1208      691.302       795.96
 1209      691.678      795.953
 1210      692.053      795.921
 1211      692.428      795.897
 1212      692.804        795.9
 1213      693.179      795.911
 1214      693.553      795.879
 1215      693.928      795.849
 1216      694.303      795.845
 1217      694.677      795.817
 1218      695.052      795.787
 1219      695.426       795.77
 1220        695.8      795.753
 1221      696.174      795.728
 1222      696.548      795.709
 1223      696.921      795.707
 1224      697.295      795.712
 1225      697.669      795.733
 1226      698.042      795.742
 1227      698.415      795.749
 1228      698.788      795.762
 1229      699.161       795.76
 1230      699.534      795.761
 1231      699.907      795.753
 1232      700.279       795.76
 1233      700.652      795.779
 1234      701.024      795.777
 1235      701.396      795.792
 1236      701.768       795.82
 1237       702.14      795.816
 1238      702.512      795.786
 1239      702.883      795.756
 1240      703.255      795.711
 1241      703.626      795.643
 1242      703.998      795.567
 1243      704.369      795.517
 1244       704.74       795.48
 1245      705.111      795.473
 1246      705.481       795.47
 1247      705.852      795.443
 1248      706.222      795.421
 1249      706.593       795.41
 1250      706.963      795.408
 1251      707.333      795.393
 1252      707.703      795.348
 1253      708.073      795.297
 1254      708.442       795.37
 1255      708.812       795.52
 1256      709.181      795.603
 1257      709.551      795.659
 1258       709.92      795.686
 1259      710.289      795.657
 1260      710.658      795.579
 1261      711.027      795.527
 1262      711.395      795.512
 1263      711.764      795.503
 1264      712.132      795.474
 1265        712.5      795.419
 1266      712.869      795.356
 1267      713.236       795.31
 1268      713.604      795.252
 1269      713.972      795.197
 1270       714.34      795.153
 1271      714.707      795.104
 1272      715.074      795.066
 1273      715.442      795.032
 1274      715.809      794.987
 1275      716.176      794.953
 1276      716.542      794.939
 1277      716.909      794.929
 1278      717.276      794.916
 1279      717.642      794.909
 1280      718.008      794.911
 1281      718.374      794.918
 1282       718.74       794.92
 1283      719.106      794.922
 1284      719.472       794.93
 1285      719.838      794.933
 1286      720.203      794.939
 1287      720.568      794.933
 1288      720.934      794.906
 1289      721.299      794.872
 1290      721.664      794.836
 1291      722.029      794.817
 1292      722.393      794.816
 1293      722.758      794.821
 1294      723.122      794.825
 1295      723.486       794.84
 1296      723.851      794.857
 1297      724.215      794.853
 1298      724.578      794.874
 1299      724.942      794.923
 1300      725.306      794.952
 1301      725.669      794.955
 1302      726.033      794.934
 1303      726.396        794.9
 1304      726.759      794.837
 1305      727.122       794.77
 1306      727.485       794.75
 1307      727.847      794.736
 1308       728.21      794.693
 1309      728.572      794.641
 1310      728.935      794.593
 1311      729.297      794.559
 1312      729.659      794.527
 1313      730.021      794.461
 1314      730.382      794.382
 1315      730.744      794.331
 1316      731.105      794.295
 1317      731.467      794.262
 1318      731.828      794.277
 1319      732.189      794.318
 1320       732.55      794.317
 1321      732.911      794.285
 1322      733.271       794.27
 1323      733.632      794.263
 1324      733.992      794.231
 1325      734.352      794.181
 1326      734.713      794.115
 1327      735.072      794.051
 1328      735.432      793.975
 1329      735.792      793.897
 1330      736.152      793.835
 1331      736.511      793.788
 1332       736.87      793.743
 1333      737.229      793.675
 1334      737.589      793.618
 1335      737.947      793.579
 1336      738.306      793.531
 1337      738.665      793.496
 1338      739.023       793.48
 1339      739.382      793.459
 1340       739.74      793.424
 1341      740.098      793.413
 1342      740.456      793.388
 1343      740.814      793.368
 1344      741.171      793.358
 1345      741.529      793.354
 1346      741.886      793.327
 1347      742.244      793.306
 1348      742.601      793.303
 1349      742.958      793.296
 1350      743.314      793.296
 1351      743.671      793.286
 1352      744.028      793.293
 1353      744.384      793.326
 1354       744.74      793.344
 1355      745.097      793.247
 1356      745.453      793.083
 1357      745.809      792.971
 1358      746.164      792.892
 1359       746.52      792.858
 1360      746.875      792.843
 1361      747.231      792.823
 1362      747.586      792.795
 1363      747.941      792.763
 1364      748.296      792.739
 1365      748.651      792.725
 1366      749.005      792.703
 1367       749.36      792.677
 1368      749.714      792.669
 1369      750.069      792.669
 1370      750.423      792.654
 1371      750.777      792.638
 1372       751.13      792.631
 1373      751.484      792.606
 1374      751.838      792.582
 1375      752.191       792.57
 1376      752.544      792.558
 1377      752.897      792.532
 1378       753.25      792.512
 1379      753.603      792.499
 1380      753.956      792.488
 1381      754.309      792.461
 1382      754.661      792.414
 1383      755.013      792.363
 1384      755.365      792.321
 1385      755.717        792.3
 1386      756.069      792.298
 1387      756.421      792.305
 1388      756.773      792.336
 1389      757.124       792.38
 1390      757.476      792.405
 1391      757.827      792.402
 1392      758.178      792.378
 1393      758.529      792.345
 1394      758.879      792.319
 1395       759.23      792.292
 1396      759.581       792.28
 1397      759.931      792.279
 1398      760.281      792.249
 1399      760.631      792.188
 1400      760.981      792.134
 1401      761.331      792.119
 1402      761.681      792.097
 1403       762.03      792.088
 1404      762.379       792.09
 1405      762.729      792.096
 1406      763.078      792.104
 1407      763.427      792.091
 1408      763.776      792.065
 1409      764.124      792.041
 1410      764.473      792.024
 1411      764.821      792.016
 1412      765.169      792.012
 1413      765.517      791.985
 1414      765.865      791.959
 1415      766.213      791.955
 1416      766.561      791.942
 1417      766.909      791.908
 1418      767.256      791.871
 1419      767.603      791.817
 1420       767.95      791.747
 1421      768.297      791.697
 1422      768.644      791.668
 1423      768.991      791.652
 1424      769.337      791.628
 1425      769.684      791.612
 1426       770.03      791.609
 1427      770.376      791.612
 1428      770.722      791.639
 1429      771.068      791.681
 1430      771.414      791.717
 1431      771.759      791.775
 1432      772.105      791.827
 1433       772.45      791.886
 1434      772.795      791.944
 1435       773.14      791.975
 1436      773.485      791.988
 1437       773.83      791.994
 1438      774.174      791.979
 1439      774.519      791.973
 1440      774.863      791.988
 1441      775.207      792.014
 1442      775.551      792.026
 1443      775.895      792.039
 1444      776.239      792.034
 1445      776.582      792.029
 1446      776.926      792.026
 1447      777.269       792.01
 1448      777.612      791.991
 1449      777.955      791.983
 1450      778.298      791.979
 1451      778.641      791.962
 1452      778.983      791.939
 1453      779.326      791.898
 1454      779.668       791.86
 1455       780.01      791.843
 1456      780.352      791.839
 1457      780.694      791.831
 1458      781.036       791.82
 1459      781.377        791.8
 1460      781.719      791.753
 1461       782.06      791.696
 1462      782.401      791.667
 1463      782.742      791.669
 1464      783.083      791.662
 1465      783.424      791.649
 1466      783.764      791.632
 1467      784.105      791.614
 1468      784.445      791.599
 1469      784.785      791.569
 1470      785.125      791.553
 1471      785.465      791.541
 1472      785.805      791.503
 1473      786.144      791.468
 1474      786.484      791.454
 1475      786.823      791.447
 1476      787.162      791.441
 1477      787.501      791.447
 1478       787.84      791.441
 1479      788.178      791.423
 1480      788.517      791.408
 1481      788.855      791.388
 1482      789.194      791.363
 1483      789.532      791.352
 1484       789.87      791.345
 1485      790.208      791.347
 1486      790.545      791.345
 1487      790.883      791.335
 1488       791.22      791.308
 1489      791.557      791.255
 1490      791.894      791.203
 1491      792.231      791.174
 1492      792.568      791.146
 1493      792.905      791.125
 1494      793.241      791.122
 1495      793.578      791.106
 1496      793.914      791.082
 1497       794.25      791.051
 1498      794.586      791.011
 1499      794.922      791.001
 1500      795.257      791.005
 1501      795.593      790.983
 1502      795.928      790.922
 1503      796.263      790.879
 1504      796.598      790.846
 1505      796.933       790.81
 1506      797.268       790.77
 1507      797.603      790.729
 1508      797.937      790.676
 1509      798.271      790.639
 1510      798.606      790.642
 1511       798.94       790.65
 1512      799.274      790.656
 1513      799.607      790.673
 1514      799.941      790.703
 1515      800.274      790.732
 1516      800.608      790.726
 1517      800.941      790.703
 1518      801.274      790.689
 1519      801.607      790.691
 1520      801.939       790.68
 1521      802.272      790.656
 1522      802.604      790.665
 1523      802.936      790.665
 1524      803.269      790.625
 1525      803.601        790.6
 1526      803.932      790.582
 1527      804.264      790.564
 1528      804.596      790.553
 1529      804.927      790.532
 1530      805.258      790.517
 1531      805.589      790.514
 1532       805.92      790.486
 1533      806.251      790.438
 1534      806.582      790.386
 1535      806.912      790.342
 1536      807.242      790.291
 1537      807.573      790.264
 1538      807.903      790.273
 1539      808.232      790.271
 1540      808.562      790.238
 1541      808.892      790.183
 1542      809.221       790.13
 1543      809.551       790.11
 1544       809.88      790.093
 1545      810.209      790.081
 1546      810.538      790.082
 1547      810.866      790.088
 1548      811.195      790.101
 1549      811.523      790.098
 1550      811.851      790.075
 1551       812.18      790.069
 1552      812.507      790.073
 1553      812.835      790.068
 1554      813.163      790.065
 1555       813.49       790.05
 1556      813.818      790.007
 1557      814.145      789.969
 1558      814.472       789.93
 1559      814.799      789.906
 1560      815.126      789.903
 1561      815.452      789.908
 1562      815.779      789.917
 1563      816.105      789.898
 1564      816.431      789.872
 1565      816.757      789.861
 1566      817.083      789.841
 1567      817.409      789.827
 1568      817.734       789.81
 1569       818.06      789.786
 1570      818.385      789.751
 1571       818.71      789.696
 1572      819.035      789.647
 1573       819.36      789.621
 1574      819.685      789.598
 1575      820.009       789.57
 1576      820.333      789.541
 1577      820.658      789.508
 1578      820.982      789.462
 1579      821.305      789.604
 1580      821.629      789.862
 1581      821.953      789.995
 1582      822.276      790.082
 1583        822.6      790.161
 1584      822.923      790.212
 1585      823.246      790.223
 1586      823.569      790.196
 1587      823.891      790.147
 1588      824.214      790.093
 1589      824.536      790.044
 1590      824.858      790.003
 1591       825.18      789.949
 1592      825.502      789.907
 1593      825.824      789.916
 1594      826.146      789.931
 1595      826.467      789.916
 1596      826.789      789.888
 1597       827.11      789.866
 1598      827.431      789.843
 1599      827.752      789.841
 1600      828.072      789.849
 1601      828.393      789.829
 1602      828.713      789.786
 1603      829.034      789.761
 1604      829.354      789.753
 1605      829.674      789.751
 1606      829.993      789.742
 1607      830.313      789.735
 1608      830.633      789.745
 1609      830.952      789.768
 1610      831.271      789.789
 1611       831.59      789.766
 1612      831.909      789.727
 1613      832.228      789.698
 1614      832.546      789.651
 1615      832.865      789.596
 1616      833.183      789.547
 1617      833.501      789.529
 1618      833.819      789.539
 1619      834.137      789.545
 1620      834.455      789.515
 1621      834.772      789.484
 1622      835.089      789.464
 1623      835.407      789.419
 1624      835.724      789.381
 1625       836.04      789.365
 1626      836.357      789.349
 1627      836.674      789.354
 1628       836.99      789.357
 1629      837.306      789.356
 1630      837.623       789.34
 1631      837.939      789.308
 1632      838.254      789.274
 1633       838.57      789.236
 1634      838.886      789.205
 1635      839.201      789.159
 1636      839.516      789.096
 1637      839.831      789.045
 1638      840.146      788.987
 1639      840.461      788.909
 1640      840.775      788.859
 1641       841.09      788.849
 1642      841.404      788.876
 1643      841.718      788.907
 1644      842.032      788.889
 1645      842.346       788.85
 1646      842.659      788.806
 1647      842.973      788.751
 1648      843.286      788.693
 1649      843.599      788.647
 1650      843.912      788.608
 1651      844.225      788.564
 1652      844.538      788.502
 1653      844.851       788.46
 1654      845.163       788.45
 1655      845.475      788.444
 1656      845.787      788.455
 1657      846.099      788.493
 1658      846.411      788.495
 1659      846.723      788.483
 1660      847.034      788.467
 1661      847.345      788.458
 1662      847.657      788.451
 1663      847.968      788.424
 1664      848.278        788.4
 1665      848.589       788.37
 1666        848.9      788.325
 1667       849.21      788.288
 1668       849.52      788.254
 1669       849.83      788.246
 1670       850.14      788.253
 1671       850.45      788.279
 1672      850.759      788.301
 1673      851.069      788.322
 1674      851.378      788.338
 1675      851.687      788.367
 1676      851.996      788.402
 1677      852.305      788.413
 1678      852.614      788.413
 1679      852.922      788.423
 1680       853.23      788.266
 1681      853.539      787.996
 1682      853.847       787.84
 1683      854.154      787.739
 1684      854.462      787.657
 1685       854.77        787.6
 1686      855.077      787.561
 1687      855.384      787.539
 1688      855.691      787.528
 1689      855.998      787.542
 1690      856.305      787.551
 1691      856.612      787.557
 1692      856.918      787.581
 1693      857.224      787.591
 1694       857.53      787.558
 1695      857.836      787.518
 1696      858.142      787.481
 1697      858.448      787.444
 1698      858.753       787.41
 1699      859.059       787.38
 1700      859.364      787.343
 1701      859.669      787.294
 1702      859.974      787.261
 1703      860.278      787.251
 1704      860.583      787.228
 1705      860.887      787.207
 1706      861.192      787.168
 1707      861.496      787.128
 1708        861.8      787.103
 1709      862.103       787.08
 1710      862.407      787.055
 1711       862.71      787.032
 1712      863.014      787.021
 1713      863.317      787.007
 1714       863.62      786.985
 1715      863.922      786.977
 1716      864.225      786.979
 1717      864.527      786.978
 1718       864.83      786.973
 1719      865.132      786.952
 1720      865.434      786.919
 1721      865.736      786.921
 1722      866.037      786.939
 1723      866.339      786.928
 1724       866.64      786.924
 1725      866.941      786.922
 1726      867.242      786.915
 1727      867.543      786.902
 1728      867.844      786.855
 1729      868.145      786.808
 1730      868.445      786.777
 1731      868.745      786.771
 1732      869.045       786.76
 1733      869.345      786.745
 1734      869.645      786.745
 1735      869.944      786.732
 1736      870.244      786.726
 1737      870.543      786.744
 1738      870.842      786.772
 1739      871.141       786.81
 1740       871.44      786.848
 1741      871.739       786.89
 1742      872.037      786.912
 1743      872.335       786.89
 1744      872.634      786.872
 1745      872.931      786.886
 1746      873.229      786.911
 1747      873.527      786.931
 1748      873.824      786.963
 1749      874.122      786.994
 1750      874.419      787.004
 1751      874.716      787.031
 1752      875.013      787.071
 1753      875.309      787.091
 1754      875.606      787.088
 1755      875.902      787.096
 1756      876.199       787.12
 1757      876.495      787.103
 1758       876.79      787.065
 1759      877.086       787.05
 1760      877.382      787.066
 1761      877.677      787.102
 1762      877.972      787.124
 1763      878.267       787.15
 1764      878.562      787.206
 1765      878.857      787.258
 1766      879.152       787.28
 1767      879.446      787.293
 1768       879.74      787.288
 1769      880.034      787.269
 1770      880.328      787.243
 1771      880.622      787.219
 1772      880.916      787.192
 1773      881.209       787.17
 1774      881.502      787.147
 1775      881.795      787.141
 1776      882.088      787.132
 1777      882.381      787.099
 1778      882.674      787.065
 1779      882.966      787.046
 1780      883.258      787.035
 1781      883.551      787.014
 1782      883.843       786.99
 1783      884.134      786.976
 1784      884.426       786.96
 1785      884.717      786.946
 1786      885.009      786.914
 1787        885.3      786.878
 1788      885.591      786.835
 1789      885.882      786.797
 1790      886.172      786.738
 1791      886.463      786.696
 1792      886.753      786.679
 1793      887.043      786.672
 1794      887.333      786.654
 1795      887.623      786.631
 1796      887.913      786.613
 1797      888.202      786.607
 1798      888.492      786.634
 1799      888.781      786.677
 1800       889.07        786.7
 1801      889.359      786.712
 1802      889.647      786.728
 1803      889.936      786.761
 1804      890.224      786.791
 1805      890.512      786.825
 1806        890.8      786.839
 1807      891.088      786.857
 1808      891.376      786.897
 1809      891.663      786.942
 1810      891.951      786.981
 1811      892.238       787.01
 1812      892.525      787.053
 1813      892.812       787.13
 1814      893.099       787.19
 1815      893.385      787.213
 1816      893.671       787.22
 1817      893.958      787.217
 1818      894.244      787.213
 1819       894.53      787.221
 1820      894.815      787.228
 1821      895.101      787.233
 1822      895.386      787.211
 1823      895.671       787.16
 1824      895.956      787.127
 1825      896.241      787.095
 1826      896.526      787.081
 1827       896.81      787.087
 1828      897.095      787.079
 1829      897.379      787.074
 1830      897.663      787.074
 1831      897.947      787.062
 1832      898.231      787.032
 1833      898.514      787.029
 1834      898.798      787.044
 1835      899.081      787.043
 1836      899.364      787.052
 1837      899.647      787.061
 1838      899.929      787.064
 1839      900.212       787.06
 1840      900.494      787.045
 1841      900.776      787.011
 1842      901.058      786.958
 1843       901.34      786.915
 1844      901.622      786.899
 1845      901.904      786.879
 1846      902.185       786.85
 1847      902.466      786.818
 1848      902.747      786.795
 1849      903.028       786.75
 1850      903.309      786.695
 1851      903.589       786.66
 1852       903.87      786.612
 1853       904.15      786.554
 1854       904.43      786.514
 1855       904.71      786.486
 1856      904.989      786.443
 1857      905.269      786.398
 1858      905.548      786.387
 1859      905.827      786.385
 1860      906.106      786.389
 1861      906.385      786.377
 1862      906.664      786.336
 1863      906.942       786.29
 1864      907.221      786.246
 1865      907.499      786.193
 1866      907.777      786.143
 1867      908.055      786.124
 1868      908.332      786.107
 1869       908.61      786.114
 1870      908.887      786.129
 1871      909.164      786.125
 1872      909.441      786.121
 1873      909.718      786.125
 1874      909.995      786.145
 1875      910.271      786.164
 1876      910.548       786.16
 1877      910.824      786.137
 1878        911.1      786.133
 1879      911.375      786.163
 1880      911.651      786.186
 1881      911.927      786.182
 1882      912.202      786.159
 1883      912.477      786.124
 1884      912.752      786.085
 1885      913.027      786.056
 1886      913.301      786.043
 1887      913.576      786.058
 1888       913.85      786.094
 1889      914.124      786.132
 1890      914.398      786.162
 1891      914.672       786.21
 1892      914.945      786.248
 1893      915.219      786.259
 1894      915.492      786.252
 1895      915.765      786.248
 1896      916.038       786.25
 1897      916.311      786.262
 1898      916.583      786.301
 1899      916.856      786.321
 1900      917.128      786.303
 1901        917.4      786.291
 1902      917.672      786.289
 1903      917.944      786.283
 1904      918.215      786.268
 1905      918.486       786.26
 1906      918.758      786.264
 1907      919.029      786.276
 1908      919.299      786.282
 1909       919.57      786.272
 1910      919.841       786.23
 1911      920.111      786.184
 1912      920.381      786.162
 1913      920.651      786.117
 1914      920.921      786.046
 1915      921.191      786.006
 1916       921.46      786.004
 1917      921.729      786.009
 1918      921.999      786.018
 1919      922.268      786.028
 1920      922.536      786.032
 1921      922.805      786.029
 1922      923.073      786.037
 1923      923.342      786.064
 1924       923.61      786.093
 1925      923.878      786.125
 1926      924.145      786.157
 1927      924.413       786.18
 1928       924.68      786.192
 1929      924.948      786.211
 1930      925.215      786.243
 1931      925.482      786.268
 1932      925.748      786.287
 1933      926.015       786.31
 1934      926.281      786.316
 1935      926.547      786.309
 1936      926.813      786.311
 1937      927.079      786.318
 1938      927.345      786.309
 1939       927.61      786.304
 1940      927.876      786.309
 1941      928.141      786.303
 1942      928.406      786.303
 1943      928.671      786.305
 1944      928.935      786.305
 1945        929.2      786.317
 1946      929.464       786.33
 1947      929.728      786.321
 1948      929.992       786.31
 1949      930.256      786.311
 1950       930.52      786.333
 1951      930.783      786.345
 1952      931.046       786.35
 1953      931.309      786.364
 1954      931.572      786.382
 1955      931.835      786.411
 1956      932.097      786.436
 1957       932.36      786.453
 1958      932.622      786.463
 1959      932.884      786.461
 1960      933.146      786.463
 1961      933.408      786.464
 1962      933.669      786.462
 1963       933.93      786.462
 1964      934.192      786.463
 1965      934.453      786.462
 1966      934.713      786.462
 1967      934.974       786.46
 1968      935.234      786.453
 1969      935.495      786.465
 1970      935.755      786.476
 1971      936.015      786.492
 1972      936.274      786.519
 1973      936.534      786.523
 1974      936.793      786.524
 1975      937.053      786.523
 1976      937.312      786.518
 1977      937.571      786.518
 1978      937.829      786.532
 1979      938.088      786.537
 1980      938.346      786.528
 1981      938.604      786.514
 1982      938.862      786.507
 1983       939.12      786.524
 1984      939.378      786.549
 1985      939.635      786.565
 1986      939.893      786.584
 1987       940.15      786.602
 1988      940.407      786.612
 1989      940.663      786.598
 1990       940.92      786.578
 1991      941.176      786.586
 1992      941.433      786.577
 1993      941.689      786.566
 1994      941.944      786.575
 1995        942.2      786.572
 1996      942.456      786.549
 1997      942.711      786.532
 1998      942.966       786.53
 1999      943.221      786.505
 2000      943.476      786.484
 2001      943.731      786.489
 2002      943.985        786.5
 2003      944.239      786.505
 2004      944.493      786.503
 2005      944.747      786.499
 2006      945.001      786.493
 2007      945.255       786.48
 2008      945.508      786.471
 2009      945.761      786.473
 2010      946.014      786.477
 2011      946.267      786.495
 2012       946.52      786.507
 2013      946.772      786.502
 2014      947.025      786.506
 2015      947.277       786.51
 2016      947.529      786.507
 2017      947.781      786.497
 2018      948.032      786.485
 2019      948.284      786.478
 2020      948.535      786.475
 2021      948.786      786.458
 2022      949.037      786.452
 2023      949.288      786.447
 2024      949.538      786.428
 2025      949.789      786.429
 2026      950.039      786.435
 2027      950.289      786.436
 2028      950.539       786.43
 2029      950.788      786.418
 2030      951.038      786.404
 2031      951.287      786.377
 2032      951.536      786.348
 2033      951.785      786.324
 2034      952.034      786.305
 2035      952.282      786.299
 2036      952.531      786.283
 2037      952.779      786.267
 2038      953.027       786.26
 2039      953.275      786.272
 2040      953.523      786.275
 2041       953.77      786.271
 2042      954.017       786.29
 2043      954.264      786.325
 2044      954.511      786.359
 2045      954.758      786.386
 2046      955.005      786.367
 2047      955.251      786.326
