scansci Spectrometer Data File
--- Measurement Setting ---
Type: Sample Spectrum
Date: Fri Nov 22 17:55:35 2024
User: (Reserved by scansci)
Serial: (Reserved by scansci)
Channel: No. 11
Integration Time: 36
Average: 30
Boxcar: 50
Electrical Dark: No-corrected
Time Normalize: (Reserved by scansci)
Dual-beam: (Reserved by scansci)
Reference Ch: (Reserved by scansci)
--- Measurement Data ---
Pixel   Wavelength   Intensity
    0        162.5      812.557
    1      162.985      812.513
    2      163.469      812.461
    3      163.954      812.406
    4      164.439      812.369
    5      164.923       812.36
    6      165.408      812.361
    7      165.892      812.364
    8      166.377      812.359
    9      166.861       812.32
   10      167.345      812.261
   11       167.83      812.231
   12      168.314      812.224
   13      168.798      812.229
   14      169.282      812.271
   15      169.766      812.342
   16       170.25      812.413
   17      170.734      812.479
   18      171.218      812.529
   19      171.702      812.563
   20      172.185      812.602
   21      172.669      812.653
   22      173.153        812.7
   23      173.636      812.716
   24       174.12      812.718
   25      174.603      812.721
   26      175.087      812.744
   27       175.57      812.776
   28      176.053      812.774
   29      176.537      812.762
   30       177.02      812.777
   31      177.503      812.794
   32      177.986        812.8
   33      178.469      812.792
   34      178.952      812.776
   35      179.435      812.772
   36      179.918      812.781
   37      180.401      812.785
   38      180.884      812.784
   39      181.366      812.783
   40      181.849      812.788
   41      182.332      812.792
   42      182.814      812.784
   43      183.297      812.771
   44      183.779      812.767
   45      184.262      812.752
   46      184.744      812.721
   47      185.226      812.692
   48      185.708      812.672
   49      186.191      812.671
   50      186.673      812.682
   51      187.155      812.779
   52      187.637      812.805
   53      188.119      812.806
   54        188.6      812.821
   55      189.082      812.843
   56      189.564      812.865
   57      190.046      812.889
   58      190.527      812.894
   59      191.009      812.892
   60      191.491      812.874
   61      191.972      812.846
   62      192.454      812.818
   63      192.935      812.784
   64      193.416      812.761
   65      193.897      812.761
   66      194.379      812.778
   67       194.86      812.801
   68      195.341      812.815
   69      195.822      812.836
   70      196.303      812.873
   71      196.784      812.923
   72      197.265      812.984
   73      197.746      813.043
   74      198.226      813.071
   75      198.707      813.067
   76      199.188      813.035
   77      199.668      812.985
   78      200.149      812.986
   79      200.629      813.024
   80       201.11      813.069
   81       201.59      813.116
   82       202.07      813.153
   83       202.55      813.177
   84      203.031      813.201
   85      203.511      813.216
   86      203.991      813.208
   87      204.471      813.191
   88      204.951      813.167
   89      205.431      813.165
   90       205.91      813.188
   91       206.39      813.208
   92       206.87      813.205
   93      207.349      813.197
   94      207.829      813.198
   95      208.309      813.198
   96      208.788      813.214
   97      209.267      813.251
   98      209.747      813.266
   99      210.226      813.267
  100      210.705      813.289
  101      211.185      813.328
  102      211.664      813.382
  103      212.143      813.436
  104      212.622      813.486
  105      213.101      813.539
  106      213.579      813.579
  107      214.058      813.593
  108      214.537      813.599
  109      215.016       813.62
  110      215.494      813.657
  111      215.973      813.702
  112      216.452      813.739
  113       216.93      813.758
  114      217.408      813.756
  115      217.887       813.73
  116      218.365      813.695
  117      218.843       813.67
  118      219.321      813.641
  119      219.799      813.628
  120      220.278      813.627
  121      220.755      813.606
  122      221.233      813.574
  123      221.711      813.549
  124      222.189      813.546
  125      222.667      813.556
  126      223.144      813.571
  127      223.622      813.571
  128        224.1      813.561
  129      224.577      813.585
  130      225.055      813.616
  131      225.532      813.612
  132      226.009      813.586
  133      226.486      813.554
  134      226.964      813.536
  135      227.441      813.532
  136      227.918      813.536
  137      228.395      813.541
  138      228.872      813.564
  139      229.349      813.598
  140      229.826      813.634
  141      230.302      813.661
  142      230.779      813.678
  143      231.256      813.699
  144      231.732      813.707
  145      232.209      813.704
  146      232.685      813.718
  147      233.162      813.754
  148      233.638      813.784
  149      234.114      813.809
  150       234.59      813.826
  151      235.066      813.838
  152      235.543      813.856
  153      236.019      813.872
  154      236.495      813.893
  155       236.97       813.91
  156      237.446      813.929
  157      237.922      813.942
  158      238.398      813.946
  159      238.873      813.945
  160      239.349       813.96
  161      239.824      813.974
  162        240.3      813.976
  163      240.775      813.983
  164      241.251      814.011
  165      241.726      814.049
  166      242.201       814.08
  167      242.676      814.091
  168      243.151      814.102
  169      243.626      814.116
  170      244.101       814.13
  171      244.576      814.137
  172      245.051      814.122
  173      245.526      814.089
  174          246      814.076
  175      246.475      814.079
  176       246.95      814.092
  177      247.424      814.113
  178      247.899      814.124
  179      248.373      814.112
  180      248.847      814.068
  181      249.321      814.026
  182      249.796          814
  183       250.27      813.987
  184      250.744      814.013
  185      251.218      814.048
  186      251.692      814.068
  187      252.166      814.096
  188      252.639      814.131
  189      253.113      814.146
  190      253.587      814.148
  191       254.06      814.148
  192      254.534      814.152
  193      255.007      814.164
  194      255.481      814.162
  195      255.954      814.162
  196      256.427      814.163
  197      256.901      814.156
  198      257.374      814.153
  199      257.847      814.157
  200       258.32      814.181
  201      258.793      814.203
  202      259.266      814.221
  203      259.739      814.225
  204      260.211      814.218
  205      260.684      814.216
  206      261.157      814.204
  207      261.629       814.19
  208      262.102      814.187
  209      262.574      814.175
  210      263.046      814.158
  211      263.519      814.164
  212      263.991      814.173
  213      264.463      814.166
  214      264.935      814.173
  215      265.407      814.193
  216      265.879      814.207
  217      266.351      814.217
  218      266.823      814.219
  219      267.295      814.224
  220      267.766      814.225
  221      268.238      814.229
  222       268.71      814.253
  223      269.181       814.28
  224      269.653        814.3
  225      270.124      814.321
  226      270.595      814.339
  227      271.066      814.331
  228      271.538      814.306
  229      272.009      814.288
  230       272.48      814.275
  231      272.951      814.262
  232      273.422      814.262
  233      273.892      814.283
  234      274.363      814.331
  235      274.834      814.392
  236      275.305      814.459
  237      275.775      814.507
  238      276.246      814.517
  239      276.716      814.499
  240      277.186      814.481
  241      277.657      814.476
  242      278.127      814.472
  243      278.597      814.473
  244      279.067       814.48
  245      279.537      814.509
  246      280.007      814.547
  247      280.477      814.571
  248      280.947      814.584
  249      281.417       814.61
  250      281.886      814.635
  251      282.356      814.655
  252      282.825      814.675
  253      283.295      814.695
  254      283.764      814.711
  255      284.234      814.724
  256      284.703      814.725
  257      285.172      814.709
  258      285.641        814.7
  259       286.11      814.704
  260      286.579      814.727
  261      287.048       814.75
  262      287.517      814.768
  263      287.986      814.787
  264      288.454      814.813
  265      288.923      814.852
  266      289.392      814.892
  267       289.86      814.912
  268      290.329      814.943
  269      290.797      814.995
  270      291.265      815.045
  271      291.734      815.077
  272      292.202      815.092
  273       292.67      815.107
  274      293.138      815.126
  275      293.606      815.136
  276      294.074      815.131
  277      294.541      815.123
  278      295.009      815.141
  279      295.477      815.175
  280      295.944      815.202
  281      296.412      815.248
  282      296.879      815.298
  283      297.347      815.341
  284      297.814      815.371
  285      298.281      815.365
  286      298.749      815.349
  287      299.216      815.377
  288      299.683      815.413
  289       300.15      815.427
  290      300.616      815.452
  291      301.083      815.498
  292       301.55      815.562
  293      302.017       815.62
  294      302.483      815.668
  295       302.95      815.717
  296      303.416      815.752
  297      303.883      815.789
  298      304.349      815.843
  299      304.815      815.897
  300      305.281      815.941
  301      305.748      815.958
  302      306.214      815.967
  303       306.68      815.961
  304      307.146      815.959
  305      307.611      815.992
  306      308.077       816.03
  307      308.543      816.054
  308      309.008      816.066
  309      309.474       816.09
  310      309.939      816.139
  311      310.405      816.191
  312       310.87       816.23
  313      311.335      816.264
  314        311.8      816.316
  315      312.266      816.373
  316      312.731      816.424
  317      313.196      816.494
  318       313.66      816.564
  319      314.125      816.623
  320       314.59      816.687
  321      315.055       816.75
  322      315.519      816.788
  323      315.984      816.819
  324      316.448      816.867
  325      316.913      816.928
  326      317.377      816.995
  327      317.841      817.056
  328      318.305      817.117
  329      318.769      817.195
  330      319.233      817.278
  331      319.697      817.355
  332      320.161      817.464
  333      320.625      817.582
  334      321.089      817.675
  335      321.552      817.753
  336      322.016      817.807
  337      322.479      817.834
  338      322.943      817.859
  339      323.406      817.911
  340      323.869       817.99
  341      324.333      818.082
  342      324.796       818.16
  343      325.259      818.225
  344      325.722      818.294
  345      326.185      818.357
  346      326.647      818.408
  347       327.11      818.461
  348      327.573      818.524
  349      328.035      818.588
  350      328.498      818.647
  351       328.96      818.705
  352      329.423       818.76
  353      329.885      818.806
  354      330.347      818.863
  355       330.81      818.926
  356      331.272      818.979
  357      331.734      819.074
  358      332.196      819.197
  359      332.657      819.313
  360      333.119      819.424
  361      333.581      819.513
  362      334.043      819.585
  363      334.504      819.649
  364      334.966      819.706
  365      335.427      819.758
  366      335.888      819.796
  367       336.35      819.837
  368      336.811       819.89
  369      337.272       819.95
  370      337.733      819.992
  371      338.194      820.034
  372      338.655       820.08
  373      339.115      820.152
  374      339.576      820.234
  375      340.037      820.307
  376      340.497      820.383
  377      340.958       820.47
  378      341.418      820.558
  379      341.879      820.623
  380      342.339      820.674
  381      342.799      820.741
  382      343.259      820.818
  383      343.719      820.894
  384      344.179       820.96
  385      344.639      821.025
  386      345.099      821.108
  387      345.559      821.203
  388      346.018       821.28
  389      346.478      821.358
  390      346.937      821.448
  391      347.397      821.528
  392      347.856      821.608
  393      348.315      821.661
  394      348.774      821.707
  395      349.234       821.76
  396      349.693      821.829
  397      350.152      821.928
  398       350.61      822.032
  399      351.069      822.116
  400      351.528      822.191
  401      351.987       822.27
  402      352.445      822.362
  403      352.904      822.468
  404      353.362      822.598
  405       353.82      822.723
  406      354.279       822.83
  407      354.737      822.932
  408      355.195      823.051
  409      355.653      823.173
  410      356.111      823.288
  411      356.569        823.4
  412      357.027      823.492
  413      357.484      823.594
  414      357.942      823.717
  415      358.399      823.841
  416      358.857      823.956
  417      359.314      824.063
  418      359.772      824.163
  419      360.229      824.259
  420      360.686      824.351
  421      361.143      824.444
  422        361.6      824.541
  423      362.057      824.668
  424      362.514      824.806
  425      362.971      824.933
  426      363.427      825.041
  427      363.884      825.141
  428       364.34      825.244
  429      364.797       825.36
  430      365.253      825.473
  431      365.709      825.576
  432      366.166      825.675
  433      366.622      825.751
  434      367.078      825.844
  435      367.534      825.958
  436       367.99       826.06
  437      368.445      826.172
  438      368.901      826.297
  439      369.357      826.428
  440      369.812      826.554
  441      370.268      826.672
  442      370.723      826.768
  443      371.179      826.866
  444      371.634      826.974
  445      372.089      827.077
  446      372.544      827.193
  447      372.999      827.334
  448      373.454      827.466
  449      373.909      827.588
  450      374.364      827.726
  451      374.818      827.873
  452      375.273      828.019
  453      375.727      828.164
  454      376.182       828.31
  455      376.636      828.425
  456       377.09      828.523
  457      377.545      828.637
  458      377.999       828.74
  459      378.453      828.841
  460      378.907      828.949
  461      379.361      829.055
  462      379.814      829.178
  463      380.268      829.319
  464      380.722      829.474
  465      381.175      829.625
  466      381.629       829.77
  467      382.082      829.917
  468      382.535      830.058
  469      382.989      830.207
  470      383.442      830.344
  471      383.895      830.486
  472      384.348       830.63
  473      384.801      830.787
  474      385.253      830.946
  475      385.706      831.116
  476      386.159      831.289
  477      386.611      831.458
  478      387.064      831.639
  479      387.516       831.84
  480      387.968      832.035
  481      388.421      832.231
  482      388.873      832.427
  483      389.325      832.604
  484      389.777      832.773
  485      390.229      832.968
  486      390.681      833.233
  487      391.132      833.517
  488      391.584      833.779
  489      392.035      834.026
  490      392.487      834.241
  491      392.938      834.455
  492       393.39      834.685
  493      393.841      834.926
  494      394.292      835.192
  495      394.743      835.473
  496      395.194      835.759
  497      395.645      836.043
  498      396.096      836.327
  499      396.546      836.631
  500      396.997      836.943
  501      397.448      837.257
  502      397.898      837.595
  503      398.349      837.948
  504      398.799      838.317
  505      399.249      838.707
  506      399.699      839.099
  507      400.149      839.485
  508      400.599        839.9
  509      401.049      840.335
  510      401.499      840.813
  511      401.949      841.321
  512      402.398       841.86
  513      402.848      842.472
  514      403.297      843.117
  515      403.747      843.783
  516      404.196      844.487
  517      404.645      845.239
  518      405.094      846.056
  519      405.543      846.938
  520      405.992      847.895
  521      406.441      848.935
  522       406.89      850.045
  523      407.339      851.248
  524      407.787      852.539
  525      408.236      853.911
  526      408.684      855.415
  527      409.132      857.052
  528      409.581      858.791
  529      410.029      860.662
  530      410.477      862.691
  531      410.925      864.893
  532      411.373      867.279
  533      411.821      869.867
  534      412.269      872.661
  535      412.716      875.646
  536      413.164      878.838
  537      413.611      882.255
  538      414.059      885.927
  539      414.506      889.885
  540      414.953      894.202
  541        415.4      898.883
  542      415.847      903.893
  543      416.294       909.26
  544      416.741      915.021
  545      417.188      921.252
  546      417.635      927.983
  547      418.081      935.253
  548      418.528      943.134
  549      418.974      951.647
  550      419.421      960.788
  551      419.867      970.679
  552      420.313      981.418
  553      420.759       992.95
  554      421.205      1005.15
  555      421.651      1017.94
  556      422.097      1031.51
  557      422.543      1045.98
  558      422.989      1061.32
  559      423.434      1077.62
  560       423.88      1095.03
  561      424.325       1113.8
  562       424.77      1134.01
  563      425.216       1155.8
  564      425.661      1179.41
  565      426.106      1204.84
  566      426.551      1231.98
  567      426.996      1261.07
  568       427.44      1292.08
  569      427.885      1324.77
  570       428.33      1359.49
  571      428.774      1396.46
  572      429.219       1435.6
  573      429.663      1477.06
  574      430.107      1520.86
  575      430.551      1567.14
  576      430.996      1616.19
  577       431.44      1668.17
  578      431.883       1723.1
  579      432.327      1781.36
  580      432.771      1843.25
  581      433.215      1908.36
  582      433.658      1976.73
  583      434.102      2048.61
  584      434.545       2124.4
  585      434.988      2204.14
  586      435.431      2287.34
  587      435.875      2374.47
  588      436.318      2466.07
  589      436.761      2561.44
  590      437.203      2660.34
  591      437.646      2763.79
  592      438.089      2871.95
  593      438.531       2984.1
  594      438.974       3100.2
  595      439.416      3220.65
  596      439.859      3345.55
  597      440.301      3474.44
  598      440.743      3606.25
  599      441.185      3741.72
  600      441.627      3880.57
  601      442.069      4021.08
  602       442.51      4163.34
  603      442.952      4307.83
  604      443.394      4454.61
  605      443.835      4603.02
  606      444.277      4751.89
  607      444.718      4900.89
  608      445.159      5050.55
  609        445.6      5200.85
  610      446.041      5351.66
  611      446.482      5501.93
  612      446.923      5650.91
  613      447.364      5797.98
  614      447.804      5942.77
  615      448.245       6085.9
  616      448.685      6227.37
  617      449.126      6366.47
  618      449.566      6503.08
  619      450.006      6637.29
  620      450.447      6768.34
  621      450.887      6896.13
  622      451.326      7020.44
  623      451.766      7140.78
  624      452.206      7257.41
  625      452.646       7370.6
  626      453.085      7480.22
  627      453.525      7585.85
  628      453.964      7687.84
  629      454.403      7786.08
  630      454.843      7880.14
  631      455.282      7970.62
  632      455.721      8057.84
  633       456.16      8141.71
  634      456.599      8222.32
  635      457.037      8299.78
  636      457.476      8374.37
  637      457.915      8446.24
  638      458.353      8515.42
  639      458.791      8581.76
  640       459.23      8645.39
  641      459.668      8706.35
  642      460.106      8764.68
  643      460.544       8820.5
  644      460.982      8874.08
  645       461.42      8925.25
  646      461.857      8974.21
  647      462.295      9021.12
  648      462.733      9065.78
  649       463.17      9107.97
  650      463.607      9147.82
  651      464.045      9185.37
  652      464.482      9220.33
  653      464.919      9252.77
  654      465.356      9282.78
  655      465.793      9310.45
  656       466.23      9335.87
  657      466.666      9359.11
  658      467.103      9380.22
  659      467.539      9399.26
  660      467.976      9415.86
  661      468.412      9429.91
  662      468.848      9441.38
  663      469.284      9450.34
  664       469.72      9456.69
  665      470.156      9459.99
  666      470.592      9460.25
  667      471.028      9457.65
  668      471.464      9452.18
  669      471.899      9443.92
  670      472.335      9433.08
  671       472.77      9419.24
  672      473.205      9402.13
  673      473.641      9381.95
  674      474.076      9358.69
  675      474.511      9332.36
  676      474.946      9302.82
  677       475.38      9269.75
  678      475.815       9233.1
  679       476.25      9192.84
  680      476.684      9148.62
  681      477.119      9100.09
  682      477.553      9047.79
  683      477.987      8991.75
  684      478.421      8931.63
  685      478.856      8867.11
  686      479.289      8798.23
  687      479.723      8725.41
  688      480.157      8648.12
  689      480.591      8565.92
  690      481.024       8479.6
  691      481.458      8389.43
  692      481.891      8294.42
  693      482.324      8194.31
  694      482.758      8089.86
  695      483.191      7981.11
  696      483.624      7867.68
  697      484.057      7749.49
  698      484.489         7627
  699      484.922      7501.29
  700      485.355      7371.58
  701      485.787      7238.26
  702       486.22      7103.07
  703      486.652      6965.91
  704      487.084      6826.24
  705      487.516      6684.01
  706      487.948      6539.93
  707       488.38      6395.16
  708      488.812      6250.09
  709      489.244      6104.22
  710      489.676      5957.48
  711      490.107      5810.02
  712      490.539      5662.91
  713       490.97      5516.93
  714      491.401      5372.67
  715      491.832       5230.5
  716      492.263      5089.81
  717      492.694      4950.61
  718      493.125      4813.62
  719      493.556      4678.96
  720      493.987      4546.53
  721      494.417      4417.14
  722      494.848      4290.83
  723      495.278      4167.84
  724      495.708      4048.63
  725      496.139      3932.94
  726      496.569      3820.48
  727      496.999      3711.43
  728      497.429      3606.14
  729      497.858      3504.28
  730      498.288      3406.02
  731      498.718      3311.76
  732      499.147      3220.87
  733      499.577         3133
  734      500.006      3048.27
  735      500.435      2966.53
  736      500.864      2887.66
  737      501.293      2811.38
  738      501.722      2737.56
  739      502.151       2666.2
  740       502.58      2597.35
  741      503.008      2530.88
  742      503.437      2466.66
  743      503.865      2404.68
  744      504.293      2344.85
  745      504.722      2286.87
  746       505.15      2230.85
  747      505.578      2176.55
  748      506.006      2123.79
  749      506.434      2072.72
  750      506.861      2023.44
  751      507.289      1975.83
  752      507.716      1929.86
  753      508.144      1885.67
  754      508.571      1843.11
  755      508.998      1802.15
  756      509.425      1762.86
  757      509.852      1725.21
  758      510.279      1688.97
  759      510.706      1653.93
  760      511.133      1620.07
  761       511.56      1587.67
  762      511.986      1556.67
  763      512.412      1526.86
  764      512.839      1498.08
  765      513.265      1470.32
  766      513.691      1443.78
  767      514.117      1418.43
  768      514.543      1394.21
  769      514.969      1370.91
  770      515.395      1348.46
  771       515.82      1326.87
  772      516.246      1306.24
  773      516.671      1286.62
  774      517.096       1267.9
  775      517.522      1249.92
  776      517.947      1232.65
  777      518.372      1216.09
  778      518.797      1200.22
  779      519.222      1185.02
  780      519.646      1170.45
  781      520.071      1156.49
  782      520.495      1143.18
  783       520.92      1130.46
  784      521.344      1118.21
  785      521.768      1106.48
  786      522.192      1095.24
  787      522.616      1084.42
  788       523.04      1074.04
  789      523.464      1064.12
  790      523.888      1054.61
  791      524.311      1045.47
  792      524.735      1036.62
  793      525.158      1028.12
  794      525.581         1020
  795      526.005      1012.22
  796      526.428      1004.78
  797      526.851      997.668
  798      527.274      990.809
  799      527.696      984.225
  800      528.119      977.945
  801      528.542       971.98
  802      528.964      966.253
  803      529.386      960.699
  804      529.809      955.363
  805      530.231      950.305
  806      530.653      945.484
  807      531.075      940.854
  808      531.497      936.404
  809      531.918      932.127
  810       532.34      927.993
  811      532.761      924.038
  812      533.183      920.307
  813      533.604      916.735
  814      534.025      913.293
  815      534.447      909.986
  816      534.868      906.787
  817      535.289      903.727
  818      535.709      900.783
  819       536.13      897.938
  820      536.551      895.216
  821      536.971      892.597
  822      537.392      890.061
  823      537.812       887.59
  824      538.232      885.208
  825      538.652      882.913
  826      539.072      880.711
  827      539.492      878.609
  828      539.912      876.588
  829      540.331      874.671
  830      540.751      872.831
  831       541.17      871.042
  832       541.59      869.301
  833      542.009      867.619
  834      542.428      865.996
  835      542.847      864.399
  836      543.266      862.849
  837      543.685      861.389
  838      544.104      859.988
  839      544.522      858.646
  840      544.941      857.352
  841      545.359      856.103
  842      545.778      854.898
  843      546.196      853.739
  844      546.614      852.601
  845      547.032       851.49
  846       547.45      850.445
  847      547.867      849.433
  848      548.285      848.431
  849      548.703      847.427
  850       549.12      846.452
  851      549.538      845.511
  852      549.955      844.604
  853      550.372       843.74
  854      550.789      842.915
  855      551.206      842.143
  856      551.623      841.411
  857      552.039      840.681
  858      552.456      839.966
  859      552.873      839.283
  860      553.289      838.624
  861      553.705      837.969
  862      554.121      837.301
  863      554.537      836.637
  864      554.953      835.999
  865      555.369      835.398
  866      555.785       834.83
  867      556.201      834.288
  868      556.616      833.771
  869      557.032      833.255
  870      557.447      832.749
  871      557.862      832.263
  872      558.277        831.8
  873      558.692      831.344
  874      559.107      830.882
  875      559.522      830.429
  876      559.937      829.983
  877      560.351      829.537
  878      560.766      829.102
  879       561.18      828.704
  880      561.595      828.374
  881      562.009       828.09
  882      562.423      827.777
  883      562.837      827.445
  884       563.25      827.086
  885      563.664      826.731
  886      564.078      826.398
  887      564.491      826.069
  888      564.905      825.732
  889      565.318      825.402
  890      565.731       825.11
  891      566.144      824.844
  892      566.557      824.576
  893       566.97      824.313
  894      567.383      824.049
  895      567.795      823.783
  896      568.208      823.525
  897       568.62       823.25
  898      569.033       822.97
  899      569.445      822.725
  900      569.857      822.504
  901      570.269      822.271
  902      570.681      822.032
  903      571.093      821.809
  904      571.504      821.617
  905      571.916      821.437
  906      572.327      821.222
  907      572.739      821.008
  908       573.15      820.816
  909      573.561      820.627
  910      573.972      820.411
  911      574.383      820.193
  912      574.794      819.981
  913      575.204      819.756
  914      575.615      819.522
  915      576.025       819.29
  916      576.436      819.066
  917      576.846      818.857
  918      577.256      818.659
  919      577.666      818.493
  920      578.076      818.345
  921      578.486      818.183
  922      578.896      817.996
  923      579.305      817.778
  924      579.715       817.58
  925      580.124      817.398
  926      580.533       817.23
  927      580.942      817.073
  928      581.351      816.922
  929       581.76      816.764
  930      582.169      816.596
  931      582.578      816.429
  932      582.986       816.27
  933      583.395        816.1
  934      583.803      815.924
  935      584.212      815.749
  936       584.62        815.6
  937      585.028      815.459
  938      585.436      815.307
  939      585.843      815.175
  940      586.251      815.034
  941      586.659      814.866
  942      587.066      814.725
  943      587.474      814.605
  944      587.881      814.474
  945      588.288      814.328
  946      588.695      814.183
  947      589.102      814.031
  948      589.509      813.905
  949      589.915      813.797
  950      590.322      813.714
  951      590.728      813.648
  952      591.135      813.577
  953      591.541       813.47
  954      591.947       813.36
  955      592.353      813.249
  956      592.759      813.104
  957      593.165       812.95
  958      593.571      812.808
  959      593.976      812.663
  960      594.382       812.51
  961      594.787      812.351
  962      595.192      812.252
  963      595.597      812.201
  964      596.002       812.14
  965      596.407      812.074
  966      596.812      812.004
  967      597.217       811.91
  968      597.621      811.799
  969      598.026      811.679
  970       598.43      811.557
  971      598.834      811.441
  972      599.238       811.33
  973      599.642      811.229
  974      600.046      811.167
  975       600.45      811.137
  976      600.854      811.086
  977      601.257      811.028
  978      601.661      810.977
  979      602.064      810.925
  980      602.467      810.852
  981       602.87      810.706
  982      603.273      810.553
  983      603.676      810.467
  984      604.079      810.375
  985      604.481      810.292
  986      604.884      810.214
  987      605.286      810.122
  988      605.689      810.032
  989      606.091      809.942
  990      606.493      809.883
  991      606.895      809.841
  992      607.297      809.756
  993      607.698      809.661
  994        608.1      809.573
  995      608.501      809.481
  996      608.903      809.399
  997      609.304      809.322
  998      609.705      809.239
  999      610.106      809.156
 1000      610.507      809.086
 1001      610.908      809.016
 1002      611.308      808.945
 1003      611.709      808.869
 1004      612.109       808.76
 1005       612.51      808.613
 1006       612.91      808.448
 1007       613.31      808.306
 1008       613.71      808.171
 1009       614.11      808.046
 1010       614.51      807.935
 1011      614.909      807.842
 1012      615.309      807.773
 1013      615.708      807.726
 1014      616.108      807.685
 1015      616.507      807.631
 1016      616.906      807.581
 1017      617.305      807.539
 1018      617.704      807.486
 1019      618.102      807.418
 1020      618.501      807.324
 1021      618.899      807.225
 1022      619.298      807.137
 1023      619.696      807.074
 1024      620.094      807.042
 1025      620.492      807.028
 1026       620.89      807.003
 1027      621.288      806.946
 1028      621.686      806.864
 1029      622.083       806.79
 1030       622.48      806.737
 1031      622.878      806.695
 1032      623.275      806.663
 1033      623.672      806.623
 1034      624.069      806.582
 1035      624.466       806.55
 1036      624.863      806.515
 1037      625.259      806.454
 1038      625.656      806.395
 1039      626.052      806.334
 1040      626.448      806.243
 1041      626.844      806.141
 1042      627.241      806.055
 1043      627.636      805.952
 1044      628.032      805.834
 1045      628.428       805.73
 1046      628.823      805.663
 1047      629.219      805.606
 1048      629.614      805.537
 1049      630.009      805.446
 1050      630.404      805.356
 1051      630.799      805.242
 1052      631.194      805.138
 1053      631.589      805.076
 1054      631.984      805.015
 1055      632.378      804.948
 1056      632.772      804.906
 1057      633.167      804.879
 1058      633.561      804.825
 1059      633.955      804.769
 1060      634.349      804.705
 1061      634.743      804.634
 1062      635.136      804.574
 1063       635.53      804.471
 1064      635.923      804.339
 1065      636.316      804.243
 1066       636.71      804.159
 1067      637.103      804.064
 1068      637.496      803.991
 1069      637.888      803.934
 1070      638.281      803.877
 1071      638.674      803.843
 1072      639.066      803.811
 1073      639.459      803.772
 1074      639.851      803.708
 1075      640.243      803.599
 1076      640.635      803.464
 1077      641.027      803.355
 1078      641.419      803.263
 1079       641.81      803.161
 1080      642.202      803.056
 1081      642.593      802.974
 1082      642.984      802.934
 1083      643.375      802.889
 1084      643.766       802.82
 1085      644.157       802.76
 1086      644.548      802.701
 1087      644.939      802.659
 1088      645.329      802.636
 1089       645.72      802.616
 1090       646.11        802.6
 1091        646.5      802.554
 1092       646.89      802.487
 1093       647.28      802.467
 1094       647.67      802.466
 1095       648.06      802.466
 1096      648.449       802.46
 1097      648.839      802.427
 1098      649.228      802.379
 1099      649.617      802.346
 1100      650.007      802.316
 1101      650.396       802.27
 1102      650.784      802.232
 1103      651.173      802.185
 1104      651.562      802.136
 1105       651.95      802.102
 1106      652.339      802.092
 1107      652.727      802.094
 1108      653.115      802.097
 1109      653.503      802.095
 1110      653.891       802.09
 1111      654.279      802.086
 1112      654.666       802.09
 1113      655.054      802.089
 1114      655.441      802.055
 1115      655.828      801.993
 1116      656.216      801.939
 1117      656.603      801.883
 1118      656.989      801.814
 1119      657.376      801.762
 1120      657.763      801.732
 1121      658.149       801.71
 1122      658.536      801.683
 1123      658.922      801.647
 1124      659.308      801.608
 1125      659.694      801.564
 1126       660.08      801.522
 1127      660.466      801.498
 1128      660.852      801.504
 1129      661.237      801.517
 1130      661.623      801.529
 1131      662.008      801.526
 1132      662.393      801.492
 1133      662.778      801.437
 1134      663.163      801.391
 1135      663.548      801.364
 1136      663.933      801.323
 1137      664.317      801.287
 1138      664.702      801.279
 1139      665.086       801.27
 1140       665.47      801.284
 1141      665.854      801.329
 1142      666.238      801.351
 1143      666.622      801.342
 1144      667.006      801.339
 1145      667.389       801.36
 1146      667.773      801.376
 1147      668.156      801.365
 1148      668.539      801.328
 1149      668.923      801.293
 1150      669.305      801.277
 1151      669.688      801.268
 1152      670.071      801.252
 1153      670.454      801.214
 1154      670.836      801.173
 1155      671.218      801.165
 1156      671.601      801.174
 1157      671.983      801.164
 1158      672.365      801.178
 1159      672.747      801.232
 1160      673.128      801.264
 1161       673.51      801.299
 1162      673.891      801.329
 1163      674.273      801.356
 1164      674.654      801.376
 1165      675.035       801.39
 1166      675.416      801.378
 1167      675.797      801.368
 1168      676.177      801.388
 1169      676.558        801.4
 1170      676.938      801.393
 1171      677.319      801.379
 1172      677.699      801.365
 1173      678.079      801.343
 1174      678.459      801.317
 1175      678.839      801.312
 1176      679.219      801.309
 1177      679.598        801.3
 1178      679.978      801.288
 1179      680.357      801.278
 1180      680.736      801.276
 1181      681.115      801.314
 1182      681.494      801.356
 1183      681.873      801.362
 1184      682.252      801.345
 1185       682.63      801.314
 1186      683.009      801.283
 1187      683.387      801.254
 1188      683.765      801.218
 1189      684.143      801.193
 1190      684.521      801.178
 1191      684.899      801.156
 1192      685.277      801.146
 1193      685.654      801.132
 1194      686.032      801.089
 1195      686.409      801.044
 1196      686.786      800.996
 1197      687.163      800.954
 1198       687.54      800.935
 1199      687.917      800.923
 1200      688.294      800.897
 1201       688.67      800.866
 1202      689.046      800.837
 1203      689.423      800.818
 1204      689.799      800.826
 1205      690.175      800.823
 1206      690.551      800.804
 1207      690.927       800.77
 1208      691.302      800.725
 1209      691.678      800.676
 1210      692.053      800.634
 1211      692.428      800.587
 1212      692.804       800.55
 1213      693.179       800.52
 1214      693.553      800.479
 1215      693.928      800.452
 1216      694.303       800.45
 1217      694.677      800.442
 1218      695.052      800.426
 1219      695.426      800.428
 1220        695.8      800.425
 1221      696.174      800.389
 1222      696.548      800.338
 1223      696.921      800.301
 1224      697.295      800.272
 1225      697.669      800.251
 1226      698.042      800.227
 1227      698.415      800.196
 1228      698.788      800.162
 1229      699.161      800.133
 1230      699.534      800.108
 1231      699.907      800.056
 1232      700.279      799.999
 1233      700.652      799.962
 1234      701.024      799.944
 1235      701.396      799.915
 1236      701.768      799.871
 1237       702.14       799.84
 1238      702.512      799.817
 1239      702.883      799.769
 1240      703.255      799.726
 1241      703.626       799.67
 1242      703.998       799.59
 1243      704.369      799.551
 1244       704.74      799.546
 1245      705.111      799.549
 1246      705.481      799.537
 1247      705.852      799.529
 1248      706.222      799.517
 1249      706.593      799.503
 1250      706.963      799.485
 1251      707.333      799.468
 1252      707.703      799.464
 1253      708.073       799.45
 1254      708.442      799.505
 1255      708.812      799.596
 1256      709.181       799.62
 1257      709.551       799.61
 1258       709.92      799.572
 1259      710.289      799.488
 1260      710.658      799.399
 1261      711.027      799.332
 1262      711.395      799.279
 1263      711.764      799.249
 1264      712.132      799.237
 1265        712.5      799.232
 1266      712.869      799.214
 1267      713.236       799.18
 1268      713.604      799.132
 1269      713.972      799.071
 1270       714.34      799.004
 1271      714.707      798.946
 1272      715.074      798.908
 1273      715.442       798.87
 1274      715.809      798.832
 1275      716.176      798.807
 1276      716.542      798.775
 1277      716.909      798.751
 1278      717.276      798.746
 1279      717.642       798.73
 1280      718.008      798.697
 1281      718.374      798.667
 1282       718.74       798.61
 1283      719.106      798.532
 1284      719.472      798.475
 1285      719.838      798.439
 1286      720.203      798.419
 1287      720.568      798.418
 1288      720.934      798.417
 1289      721.299      798.413
 1290      721.664      798.389
 1291      722.029      798.343
 1292      722.393      798.295
 1293      722.758      798.253
 1294      723.122      798.201
 1295      723.486      798.161
 1296      723.851      798.127
 1297      724.215       798.09
 1298      724.578      798.063
 1299      724.942      798.038
 1300      725.306      798.012
 1301      725.669      797.988
 1302      726.033      797.953
 1303      726.396      797.913
 1304      726.759      797.866
 1305      727.122      797.801
 1306      727.485      797.747
 1307      727.847       797.72
 1308       728.21      797.714
 1309      728.572      797.708
 1310      728.935      797.694
 1311      729.297      797.682
 1312      729.659      797.677
 1313      730.021       797.65
 1314      730.382      797.598
 1315      730.744      797.544
 1316      731.105      797.502
 1317      731.467      797.463
 1318      731.828      797.471
 1319      732.189      797.519
 1320       732.55       797.52
 1321      732.911      797.489
 1322      733.271      797.476
 1323      733.632      797.479
 1324      733.992      797.482
 1325      734.352       797.48
 1326      734.713      797.458
 1327      735.072      797.432
 1328      735.432      797.383
 1329      735.792       797.32
 1330      736.152      797.257
 1331      736.511      797.191
 1332       736.87      797.141
 1333      737.229      797.089
 1334      737.589      797.021
 1335      737.947      796.942
 1336      738.306      796.862
 1337      738.665      796.807
 1338      739.023      796.762
 1339      739.382      796.719
 1340       739.74      796.692
 1341      740.098      796.668
 1342      740.456       796.64
 1343      740.814      796.604
 1344      741.171      796.561
 1345      741.529      796.497
 1346      741.886      796.429
 1347      742.244      796.392
 1348      742.601      796.356
 1349      742.958      796.306
 1350      743.314      796.262
 1351      743.671      796.223
 1352      744.028      796.174
 1353      744.384      796.107
 1354       744.74      796.061
 1355      745.097      795.947
 1356      745.453      795.785
 1357      745.809      795.669
 1358      746.164      795.555
 1359       746.52      795.476
 1360      746.875      795.428
 1361      747.231      795.375
 1362      747.586      795.323
 1363      747.941       795.28
 1364      748.296      795.231
 1365      748.651      795.163
 1366      749.005      795.092
 1367       749.36      795.027
 1368      749.714      794.976
 1369      750.069       794.93
 1370      750.423      794.901
 1371      750.777      794.878
 1372       751.13      794.841
 1373      751.484      794.792
 1374      751.838      794.749
 1375      752.191      794.708
 1376      752.544      794.644
 1377      752.897      794.593
 1378       753.25      794.544
 1379      753.603      794.492
 1380      753.956      794.455
 1381      754.309      794.436
 1382      754.661      794.405
 1383      755.013      794.348
 1384      755.365      794.307
 1385      755.717      794.263
 1386      756.069       794.21
 1387      756.421      794.172
 1388      756.773      794.127
 1389      757.124      794.069
 1390      757.476       794.01
 1391      757.827      793.961
 1392      758.178      793.918
 1393      758.529      793.867
 1394      758.879      793.806
 1395       759.23      793.759
 1396      759.581      793.733
 1397      759.931      793.715
 1398      760.281       793.69
 1399      760.631      793.655
 1400      760.981       793.62
 1401      761.331      793.595
 1402      761.681      793.567
 1403       762.03      793.543
 1404      762.379      793.519
 1405      762.729      793.502
 1406      763.078      793.494
 1407      763.427      793.488
 1408      763.776      793.462
 1409      764.124      793.412
 1410      764.473       793.36
 1411      764.821      793.316
 1412      765.169      793.264
 1413      765.517      793.207
 1414      765.865      793.161
 1415      766.213       793.14
 1416      766.561      793.121
 1417      766.909      793.076
 1418      767.256      793.014
 1419      767.603      792.912
 1420       767.95      792.772
 1421      768.297      792.665
 1422      768.644      792.592
 1423      768.991      792.517
 1424      769.337      792.455
 1425      769.684      792.369
 1426       770.03      792.263
 1427      770.376      792.178
 1428      770.722      792.105
 1429      771.068      792.043
 1430      771.414      791.986
 1431      771.759      791.939
 1432      772.105      791.908
 1433       772.45      791.902
 1434      772.795      791.913
 1435       773.14      791.932
 1436      773.485       791.95
 1437       773.83      791.981
 1438      774.174      791.977
 1439      774.519      791.954
 1440      774.863      791.939
 1441      775.207      791.926
 1442      775.551      791.895
 1443      775.895       791.83
 1444      776.239      791.768
 1445      776.582      791.719
 1446      776.926      791.689
 1447      777.269      791.651
 1448      777.612      791.585
 1449      777.955       791.53
 1450      778.298      791.502
 1451      778.641      791.489
 1452      778.983      791.487
 1453      779.326      791.465
 1454      779.668      791.424
 1455       780.01      791.375
 1456      780.352      791.322
 1457      780.694      791.275
 1458      781.036      791.244
 1459      781.377      791.234
 1460      781.719      791.206
 1461       782.06       791.16
 1462      782.401      791.114
 1463      782.742      791.084
 1464      783.083      791.047
 1465      783.424      791.008
 1466      783.764       790.99
 1467      784.105      790.979
 1468      784.445       790.96
 1469      784.785      790.956
 1470      785.125      790.957
 1471      785.465      790.933
 1472      785.805      790.903
 1473      786.144      790.879
 1474      786.484      790.852
 1475      786.823      790.834
 1476      787.162      790.816
 1477      787.501      790.805
 1478       787.84      790.785
 1479      788.178      790.763
 1480      788.517      790.749
 1481      788.855      790.737
 1482      789.194      790.713
 1483      789.532      790.693
 1484       789.87      790.679
 1485      790.208      790.672
 1486      790.545      790.664
 1487      790.883      790.634
 1488       791.22      790.582
 1489      791.557      790.516
 1490      791.894      790.462
 1491      792.231      790.413
 1492      792.568      790.354
 1493      792.905      790.318
 1494      793.241      790.311
 1495      793.578        790.3
 1496      793.914       790.28
 1497       794.25       790.24
 1498      794.586      790.177
 1499      794.922      790.119
 1500      795.257      790.063
 1501      795.593      790.001
 1502      795.928      789.936
 1503      796.263      789.886
 1504      796.598      789.859
 1505      796.933      789.816
 1506      797.268      789.753
 1507      797.603      789.697
 1508      797.937      789.652
 1509      798.271       789.61
 1510      798.606      789.584
 1511       798.94      789.573
 1512      799.274      789.571
 1513      799.607      789.581
 1514      799.941      789.611
 1515      800.274      789.623
 1516      800.608      789.594
 1517      800.941      789.577
 1518      801.274      789.573
 1519      801.607      789.557
 1520      801.939      789.533
 1521      802.272      789.515
 1522      802.604      789.491
 1523      802.936      789.468
 1524      803.269      789.473
 1525      803.601      789.481
 1526      803.932      789.515
 1527      804.264      789.559
 1528      804.596      789.581
 1529      804.927      789.599
 1530      805.258      789.618
 1531      805.589       789.64
 1532       805.92       789.66
 1533      806.251      789.645
 1534      806.582      789.609
 1535      806.912      789.584
 1536      807.242      789.557
 1537      807.573      789.543
 1538      807.903      789.529
 1539      808.232      789.518
 1540      808.562      789.505
 1541      808.892      789.462
 1542      809.221      789.416
 1543      809.551      789.396
 1544       809.88      789.398
 1545      810.209      789.387
 1546      810.538      789.372
 1547      810.866      789.356
 1548      811.195      789.337
 1549      811.523      789.313
 1550      811.851      789.299
 1551       812.18       789.32
 1552      812.507      789.337
 1553      812.835      789.314
 1554      813.163      789.285
 1555       813.49      789.257
 1556      813.818      789.224
 1557      814.145      789.191
 1558      814.472      789.157
 1559      814.799       789.13
 1560      815.126      789.119
 1561      815.452      789.125
 1562      815.779      789.129
 1563      816.105      789.126
 1564      816.431      789.096
 1565      816.757      789.051
 1566      817.083      789.008
 1567      817.409       788.96
 1568      817.734      788.901
 1569       818.06      788.858
 1570      818.385      788.819
 1571       818.71      788.789
 1572      819.035      788.773
 1573       819.36      788.767
 1574      819.685      788.778
 1575      820.009      788.783
 1576      820.333      788.756
 1577      820.658      788.713
 1578      820.982      788.654
 1579      821.305      788.774
 1580      821.629      789.002
 1581      821.953      789.097
 1582      822.276       789.13
 1583        822.6      789.139
 1584      822.923      789.132
 1585      823.246      789.122
 1586      823.569      789.097
 1587      823.891      789.078
 1588      824.214      789.074
 1589      824.536      789.062
 1590      824.858      789.058
 1591       825.18      789.063
 1592      825.502      789.073
 1593      825.824      789.115
 1594      826.146      789.144
 1595      826.467      789.129
 1596      826.789      789.091
 1597       827.11      789.053
 1598      827.431      789.011
 1599      827.752      788.998
 1600      828.072      789.001
 1601      828.393      789.004
 1602      828.713      789.011
 1603      829.034      789.007
 1604      829.354      788.977
 1605      829.674      788.933
 1606      829.993      788.919
 1607      830.313       788.93
 1608      830.633      788.944
 1609      830.952      788.934
 1610      831.271      788.912
 1611       831.59      788.886
 1612      831.909      788.864
 1613      832.228      788.827
 1614      832.546      788.771
 1615      832.865      788.688
 1616      833.183      788.609
 1617      833.501      788.549
 1618      833.819      788.495
 1619      834.137      788.443
 1620      834.455      788.401
 1621      834.772       788.36
 1622      835.089      788.323
 1623      835.407      788.313
 1624      835.724      788.302
 1625       836.04       788.26
 1626      836.357      788.217
 1627      836.674      788.185
 1628       836.99      788.158
 1629      837.306      788.138
 1630      837.623      788.105
 1631      837.939      788.065
 1632      838.254      788.031
 1633       838.57      787.989
 1634      838.886       787.96
 1635      839.201      787.928
 1636      839.516      787.891
 1637      839.831      787.874
 1638      840.146      787.845
 1639      840.461      787.794
 1640      840.775      787.749
 1641       841.09      787.722
 1642      841.404      787.724
 1643      841.718      787.718
 1644      842.032      787.677
 1645      842.346      787.643
 1646      842.659      787.629
 1647      842.973      787.606
 1648      843.286      787.585
 1649      843.599      787.568
 1650      843.912      787.557
 1651      844.225      787.519
 1652      844.538      787.418
 1653      844.851      787.323
 1654      845.163      787.275
 1655      845.475      787.242
 1656      845.787      787.245
 1657      846.099      787.279
 1658      846.411      787.301
 1659      846.723      787.309
 1660      847.034      787.312
 1661      847.345      787.309
 1662      847.657        787.3
 1663      847.968       787.28
 1664      848.278      787.278
 1665      848.589      787.289
 1666        848.9      787.297
 1667       849.21      787.287
 1668       849.52      787.272
 1669       849.83      787.274
 1670       850.14      787.293
 1671       850.45      787.316
 1672      850.759      787.319
 1673      851.069      787.308
 1674      851.378      787.291
 1675      851.687      787.279
 1676      851.996      787.276
 1677      852.305      787.269
 1678      852.614      787.266
 1679      852.922      787.283
 1680       853.23      787.129
 1681      853.539      786.864
 1682      853.847      786.718
 1683      854.154      786.629
 1684      854.462      786.569
 1685       854.77      786.522
 1686      855.077      786.491
 1687      855.384      786.447
 1688      855.691      786.398
 1689      855.998      786.372
 1690      856.305      786.355
 1691      856.612      786.331
 1692      856.918      786.312
 1693      857.224       786.29
 1694       857.53      786.232
 1695      857.836      786.169
 1696      858.142      786.139
 1697      858.448      786.137
 1698      858.753      786.137
 1699      859.059      786.131
 1700      859.364      786.103
 1701      859.669      786.068
 1702      859.974      786.026
 1703      860.278      785.967
 1704      860.583       785.93
 1705      860.887      785.935
 1706      861.192       785.95
 1707      861.496      785.946
 1708        861.8      785.917
 1709      862.103      785.873
 1710      862.407      785.845
 1711       862.71      785.835
 1712      863.014      785.819
 1713      863.317      785.802
 1714       863.62      785.806
 1715      863.922      785.822
 1716      864.225       785.85
 1717      864.527      785.884
 1718       864.83      785.906
 1719      865.132        785.9
 1720      865.434      785.887
 1721      865.736      785.887
 1722      866.037       785.89
 1723      866.339      785.878
 1724       866.64      785.842
 1725      866.941      785.812
 1726      867.242      785.797
 1727      867.543      785.768
 1728      867.844      785.722
 1729      868.145      785.689
 1730      868.445      785.689
 1731      868.745      785.708
 1732      869.045      785.714
 1733      869.345      785.715
 1734      869.645      785.721
 1735      869.944      785.722
 1736      870.244       785.73
 1737      870.543      785.723
 1738      870.842      785.701
 1739      871.141      785.692
 1740       871.44      785.695
 1741      871.739      785.699
 1742      872.037      785.705
 1743      872.335      785.687
 1744      872.634      785.685
 1745      872.931      785.717
 1746      873.229      785.735
 1747      873.527      785.744
 1748      873.824      785.759
 1749      874.122      785.776
 1750      874.419      785.778
 1751      874.716      785.774
 1752      875.013      785.773
 1753      875.309      785.783
 1754      875.606        785.8
 1755      875.902      785.821
 1756      876.199      785.852
 1757      876.495      785.845
 1758       876.79      785.808
 1759      877.086       785.76
 1760      877.382      785.718
 1761      877.677       785.69
 1762      877.972      785.665
 1763      878.267       785.64
 1764      878.562      785.636
 1765      878.857       785.62
 1766      879.152      785.591
 1767      879.446      785.552
 1768       879.74      785.517
 1769      880.034      785.477
 1770      880.328      785.441
 1771      880.622      785.408
 1772      880.916      785.371
 1773      881.209      785.356
 1774      881.502      785.347
 1775      881.795      785.331
 1776      882.088      785.287
 1777      882.381      785.241
 1778      882.674      785.216
 1779      882.966        785.2
 1780      883.258      785.204
 1781      883.551      785.201
 1782      883.843      785.173
 1783      884.134      785.149
 1784      884.426      785.137
 1785      884.717      785.133
 1786      885.009      785.133
 1787        885.3      785.133
 1788      885.591      785.143
 1789      885.882      785.136
 1790      886.172      785.115
 1791      886.463      785.112
 1792      886.753      785.141
 1793      887.043      785.153
 1794      887.333       785.15
 1795      887.623      785.156
 1796      887.913      785.153
 1797      888.202      785.138
 1798      888.492      785.131
 1799      888.781      785.144
 1800       889.07      785.155
 1801      889.359      785.142
 1802      889.647      785.137
 1803      889.936      785.149
 1804      890.224      785.162
 1805      890.512      785.159
 1806        890.8      785.137
 1807      891.088      785.101
 1808      891.376      785.079
 1809      891.663      785.087
 1810      891.951      785.111
 1811      892.238       785.12
 1812      892.525      785.145
 1813      892.812      785.189
 1814      893.099      785.206
 1815      893.385      785.199
 1816      893.671      785.168
 1817      893.958      785.131
 1818      894.244      785.103
 1819       894.53      785.102
 1820      894.815       785.14
 1821      895.101      785.171
 1822      895.386      785.186
 1823      895.671      785.196
 1824      895.956      785.224
 1825      896.241      785.243
 1826      896.526      785.253
 1827       896.81       785.25
 1828      897.095       785.24
 1829      897.379      785.225
 1830      897.663      785.198
 1831      897.947      785.141
 1832      898.231      785.086
 1833      898.514      785.072
 1834      898.798      785.064
 1835      899.081      785.049
 1836      899.364      785.053
 1837      899.647      785.044
 1838      899.929      785.028
 1839      900.212      785.013
 1840      900.494      784.964
 1841      900.776      784.917
 1842      901.058      784.876
 1843       901.34      784.845
 1844      901.622      784.859
 1845      901.904      784.879
 1846      902.185      784.883
 1847      902.466      784.889
 1848      902.747      784.873
 1849      903.028      784.846
 1850      903.309      784.824
 1851      903.589      784.814
 1852       903.87      784.803
 1853       904.15      784.799
 1854       904.43        784.8
 1855       904.71      784.775
 1856      904.989      784.726
 1857      905.269      784.683
 1858      905.548      784.671
 1859      905.827      784.664
 1860      906.106      784.685
 1861      906.385      784.724
 1862      906.664      784.751
 1863      906.942      784.768
 1864      907.221      784.786
 1865      907.499      784.802
 1866      907.777      784.814
 1867      908.055      784.831
 1868      908.332      784.863
 1869       908.61      784.904
 1870      908.887      784.939
 1871      909.164       784.95
 1872      909.441      784.947
 1873      909.718       784.94
 1874      909.995      784.918
 1875      910.271      784.897
 1876      910.548      784.872
 1877      910.824      784.855
 1878        911.1      784.842
 1879      911.375      784.825
 1880      911.651      784.798
 1881      911.927      784.757
 1882      912.202      784.729
 1883      912.477      784.737
 1884      912.752      784.759
 1885      913.027      784.773
 1886      913.301      784.786
 1887      913.576      784.792
 1888       913.85       784.78
 1889      914.124      784.773
 1890      914.398      784.778
 1891      914.672      784.782
 1892      914.945      784.777
 1893      915.219      784.755
 1894      915.492      784.748
 1895      915.765      784.768
 1896      916.038      784.776
 1897      916.311      784.791
 1898      916.583      784.813
 1899      916.856      784.798
 1900      917.128      784.759
 1901        917.4      784.735
 1902      917.672      784.739
 1903      917.944      784.735
 1904      918.215      784.745
 1905      918.486      784.766
 1906      918.758      784.768
 1907      919.029      784.765
 1908      919.299       784.76
 1909       919.57      784.751
 1910      919.841      784.728
 1911      920.111      784.707
 1912      920.381      784.689
 1913      920.651      784.629
 1914      920.921      784.549
 1915      921.191      784.492
 1916       921.46      784.443
 1917      921.729      784.415
 1918      921.999      784.395
 1919      922.268      784.382
 1920      922.536      784.364
 1921      922.805      784.319
 1922      923.073      784.265
 1923      923.342       784.22
 1924       923.61      784.198
 1925      923.878       784.18
 1926      924.145      784.174
 1927      924.413      784.175
 1928       924.68      784.198
 1929      924.948       784.23
 1930      925.215      784.261
 1931      925.482      784.302
 1932      925.748      784.348
 1933      926.015      784.362
 1934      926.281      784.341
 1935      926.547      784.302
 1936      926.813      784.277
 1937      927.079      784.254
 1938      927.345      784.231
 1939       927.61      784.224
 1940      927.876      784.224
 1941      928.141      784.239
 1942      928.406      784.251
 1943      928.671      784.262
 1944      928.935      784.281
 1945        929.2      784.284
 1946      929.464      784.259
 1947      929.728      784.214
 1948      929.992      784.165
 1949      930.256      784.144
 1950       930.52       784.13
 1951      930.783      784.098
 1952      931.046      784.065
 1953      931.309      784.039
 1954      931.572      784.034
 1955      931.835      784.046
 1956      932.097      784.069
 1957       932.36      784.088
 1958      932.622      784.098
 1959      932.884      784.093
 1960      933.146      784.084
 1961      933.408      784.059
 1962      933.669      784.018
 1963       933.93      783.978
 1964      934.192      783.939
 1965      934.453      783.898
 1966      934.713      783.865
 1967      934.974      783.845
 1968      935.234       783.82
 1969      935.495       783.79
 1970      935.755      783.748
 1971      936.015      783.712
 1972      936.274      783.688
 1973      936.534      783.654
 1974      936.793      783.627
 1975      937.053      783.598
 1976      937.312      783.567
 1977      937.571      783.566
 1978      937.829      783.576
 1979      938.088       783.59
 1980      938.346      783.625
 1981      938.604      783.674
 1982      938.862      783.721
 1983       939.12      783.745
 1984      939.378      783.752
 1985      939.635      783.755
 1986      939.893      783.748
 1987       940.15      783.738
 1988      940.407      783.736
 1989      940.663      783.741
 1990       940.92      783.739
 1991      941.176      783.731
 1992      941.433      783.722
 1993      941.689      783.712
 1994      941.944      783.691
 1995        942.2      783.656
 1996      942.456      783.611
 1997      942.711      783.582
 1998      942.966      783.563
 1999      943.221      783.547
 2000      943.476      783.551
 2001      943.731      783.556
 2002      943.985      783.556
 2003      944.239      783.557
 2004      944.493       783.55
 2005      944.747      783.521
 2006      945.001      783.495
 2007      945.255      783.489
 2008      945.508      783.489
 2009      945.761      783.496
 2010      946.014        783.5
 2011      946.267      783.502
 2012       946.52      783.486
 2013      946.772      783.478
 2014      947.025      783.498
 2015      947.277      783.526
 2016      947.529      783.552
 2017      947.781      783.585
 2018      948.032      783.621
 2019      948.284      783.646
 2020      948.535      783.659
 2021      948.786      783.658
 2022      949.037      783.661
 2023      949.288      783.692
 2024      949.538      783.726
 2025      949.789      783.745
 2026      950.039      783.754
 2027      950.289      783.768
 2028      950.539       783.78
 2029      950.788      783.764
 2030      951.038      783.733
 2031      951.287      783.706
 2032      951.536      783.672
 2033      951.785      783.634
 2034      952.034      783.621
 2035      952.282      783.628
 2036      952.531      783.645
 2037      952.779      783.654
 2038      953.027      783.654
 2039      953.275      783.668
 2040      953.523      783.669
 2041       953.77      783.664
 2042      954.017      783.674
 2043      954.264      783.693
 2044      954.511      783.712
 2045      954.758      783.679
 2046      955.005       783.61
 2047      955.251      783.559
