scansci Spectrometer Data File
--- Measurement Setting ---
Type: Sample Spectrum
Date: Fri Nov 22 17:55:53 2024
User: (Reserved by scansci)
Serial: (Reserved by scansci)
Channel: No. 11
Integration Time: 36
Average: 30
Boxcar: 50
Electrical Dark: No-corrected
Time Normalize: (Reserved by scansci)
Dual-beam: (Reserved by scansci)
Reference Ch: (Reserved by scansci)
--- Measurement Data ---
Pixel   Wavelength   Intensity
    0        162.5      823.464
    1      162.985      823.495
    2      163.469      823.508
    3      163.954      823.521
    4      164.439      823.575
    5      164.923      823.611
    6      165.408      823.627
    7      165.892      823.658
    8      166.377      823.699
    9      166.861      823.719
   10      167.345       823.71
   11       167.83      823.688
   12      168.314       823.68
   13      168.798      823.679
   14      169.282      823.674
   15      169.766      823.677
   16       170.25      823.697
   17      170.734      823.742
   18      171.218      823.794
   19      171.702      823.844
   20      172.185      823.886
   21      172.669      823.906
   22      173.153      823.919
   23      173.636      823.915
   24       174.12      823.897
   25      174.603      823.907
   26      175.087      823.934
   27       175.57      823.976
   28      176.053       824.02
   29      176.537      824.059
   30       177.02      824.115
   31      177.503      824.168
   32      177.986        824.2
   33      178.469      824.212
   34      178.952      824.216
   35      179.435      824.214
   36      179.918      824.193
   37      180.401      824.166
   38      180.884      824.134
   39      181.366      824.121
   40      181.849      824.126
   41      182.332      824.117
   42      182.814      824.118
   43      183.297       824.12
   44      183.779       824.11
   45      184.262      824.089
   46      184.744      824.074
   47      185.226      824.049
   48      185.708      824.027
   49      186.191      824.007
   50      186.673      823.981
   51      187.155       824.11
   52      187.637       824.15
   53      188.119      824.171
   54        188.6      824.196
   55      189.082      824.197
   56      189.564        824.2
   57      190.046      824.212
   58      190.527      824.235
   59      191.009      824.253
   60      191.491      824.254
   61      191.972      824.262
   62      192.454       824.28
   63      192.935      824.304
   64      193.416      824.327
   65      193.897      824.316
   66      194.379      824.311
   67       194.86      824.315
   68      195.341      824.298
   69      195.822      824.295
   70      196.303      824.307
   71      196.784      824.333
   72      197.265      824.364
   73      197.746      824.392
   74      198.226      824.434
   75      198.707      824.471
   76      199.188       824.46
   77      199.668      824.423
   78      200.149      824.443
   79      200.629      824.508
   80       201.11      824.557
   81       201.59      824.602
   82       202.07      824.648
   83       202.55      824.665
   84      203.031      824.665
   85      203.511      824.651
   86      203.991      824.643
   87      204.471      824.638
   88      204.951      824.628
   89      205.431      824.644
   90       205.91      824.673
   91       206.39      824.677
   92       206.87      824.667
   93      207.349      824.674
   94      207.829      824.693
   95      208.309      824.722
   96      208.788      824.759
   97      209.267      824.799
   98      209.747      824.825
   99      210.226      824.849
  100      210.705      824.863
  101      211.185      824.889
  102      211.664      824.923
  103      212.143      824.963
  104      212.622      824.987
  105      213.101       824.97
  106      213.579      824.956
  107      214.058      824.954
  108      214.537      824.943
  109      215.016      824.938
  110      215.494      824.957
  111      215.973      824.991
  112      216.452      825.049
  113       216.93      825.107
  114      217.408      825.147
  115      217.887      825.188
  116      218.365      825.233
  117      218.843      825.274
  118      219.321      825.283
  119      219.799      825.299
  120      220.278      825.327
  121      220.755      825.344
  122      221.233      825.359
  123      221.711      825.371
  124      222.189      825.397
  125      222.667       825.42
  126      223.144      825.406
  127      223.622      825.378
  128        224.1       825.34
  129      224.577      825.296
  130      225.055       825.27
  131      225.532      825.236
  132      226.009      825.198
  133      226.486      825.173
  134      226.964      825.165
  135      227.441      825.174
  136      227.918      825.205
  137      228.395      825.257
  138      228.872      825.313
  139      229.349      825.384
  140      229.826      825.436
  141      230.302      825.465
  142      230.779      825.501
  143      231.256      825.531
  144      231.732      825.545
  145      232.209      825.556
  146      232.685      825.588
  147      233.162      825.624
  148      233.638      825.685
  149      234.114      825.745
  150       234.59      825.789
  151      235.066      825.836
  152      235.543      825.874
  153      236.019      825.905
  154      236.495      825.916
  155       236.97      825.929
  156      237.446      825.964
  157      237.922      825.984
  158      238.398      825.983
  159      238.873      825.974
  160      239.349      825.994
  161      239.824      826.022
  162        240.3      826.017
  163      240.775      826.003
  164      241.251      825.998
  165      241.726      825.998
  166      242.201      826.046
  167      242.676      826.106
  168      243.151      826.162
  169      243.626      826.222
  170      244.101      826.278
  171      244.576      826.326
  172      245.051      826.342
  173      245.526      826.335
  174          246      826.325
  175      246.475      826.287
  176       246.95      826.249
  177      247.424      826.237
  178      247.899      826.249
  179      248.373      826.257
  180      248.847       826.25
  181      249.321      826.235
  182      249.796      826.218
  183       250.27      826.224
  184      250.744      826.262
  185      251.218      826.293
  186      251.692      826.317
  187      252.166       826.34
  188      252.639      826.345
  189      253.113      826.347
  190      253.587      826.345
  191       254.06      826.334
  192      254.534      826.331
  193      255.007      826.349
  194      255.481      826.355
  195      255.954      826.347
  196      256.427      826.341
  197      256.901      826.331
  198      257.374      826.319
  199      257.847       826.32
  200       258.32      826.327
  201      258.793      826.329
  202      259.266       826.31
  203      259.739      826.278
  204      260.211      826.245
  205      260.684      826.225
  206      261.157      826.224
  207      261.629       826.23
  208      262.102      826.243
  209      262.574      826.252
  210      263.046      826.243
  211      263.519      826.205
  212      263.991      826.172
  213      264.463      826.139
  214      264.935      826.091
  215      265.407      826.065
  216      265.879      826.053
  217      266.351      826.024
  218      266.823      825.974
  219      267.295      825.932
  220      267.766      825.886
  221      268.238      825.846
  222       268.71      825.808
  223      269.181      825.774
  224      269.653      825.754
  225      270.124      825.732
  226      270.595      825.706
  227      271.066      825.689
  228      271.538      825.676
  229      272.009      825.665
  230       272.48      825.672
  231      272.951      825.673
  232      273.422      825.673
  233      273.892      825.691
  234      274.363      825.712
  235      274.834      825.709
  236      275.305      825.684
  237      275.775      825.657
  238      276.246      825.643
  239      276.716      825.638
  240      277.186      825.599
  241      277.657      825.552
  242      278.127      825.504
  243      278.597      825.466
  244      279.067      825.435
  245      279.537      825.417
  246      280.007      825.395
  247      280.477      825.361
  248      280.947      825.333
  249      281.417      825.301
  250      281.886      825.263
  251      282.356      825.239
  252      282.825      825.224
  253      283.295      825.208
  254      283.764      825.164
  255      284.234      825.126
  256      284.703      825.103
  257      285.172      825.086
  258      285.641      825.082
  259       286.11      825.097
  260      286.579      825.118
  261      287.048      825.106
  262      287.517       825.08
  263      287.986      825.082
  264      288.454      825.101
  265      288.923      825.115
  266      289.392      825.118
  267       289.86      825.099
  268      290.329      825.078
  269      290.797      825.072
  270      291.265      825.049
  271      291.734      825.031
  272      292.202      825.024
  273       292.67      825.028
  274      293.138      825.038
  275      293.606      825.069
  276      294.074      825.095
  277      294.541      825.111
  278      295.009      825.116
  279      295.477      825.117
  280      295.944      825.118
  281      296.412      825.098
  282      296.879      825.084
  283      297.347      825.104
  284      297.814      825.114
  285      298.281      825.101
  286      298.749      825.085
  287      299.216      825.089
  288      299.683      825.125
  289       300.15      825.164
  290      300.616      825.166
  291      301.083      825.146
  292       301.55      825.128
  293      302.017       825.11
  294      302.483      825.081
  295       302.95      825.048
  296      303.416      825.027
  297      303.883       825.02
  298      304.349       825.02
  299      304.815      825.024
  300      305.281      825.022
  301      305.748      825.008
  302      306.214      824.996
  303       306.68      824.997
  304      307.146      824.993
  305      307.611      825.002
  306      308.077      825.016
  307      308.543      825.016
  308      309.008      824.994
  309      309.474      824.976
  310      309.939      824.979
  311      310.405      825.003
  312       310.87      825.056
  313      311.335      825.118
  314        311.8      825.181
  315      312.266      825.241
  316      312.731      825.274
  317      313.196      825.287
  318       313.66       825.32
  319      314.125       825.37
  320       314.59      825.418
  321      315.055      825.471
  322      315.519      825.512
  323      315.984      825.562
  324      316.448      825.618
  325      316.913      825.673
  326      317.377      825.737
  327      317.841      825.819
  328      318.305      825.899
  329      318.769      825.968
  330      319.233      826.039
  331      319.697      826.099
  332      320.161      826.175
  333      320.625      826.268
  334      321.089      826.325
  335      321.552      826.362
  336      322.016      826.421
  337      322.479      826.482
  338      322.943      826.527
  339      323.406      826.568
  340      323.869      826.588
  341      324.333      826.637
  342      324.796      826.707
  343      325.259      826.784
  344      325.722      826.871
  345      326.185      826.941
  346      326.647      826.997
  347       327.11      827.055
  348      327.573      827.118
  349      328.035      827.174
  350      328.498      827.227
  351       328.96      827.292
  352      329.423      827.343
  353      329.885      827.372
  354      330.347        827.4
  355       330.81       827.45
  356      331.272      827.507
  357      331.734      827.559
  358      332.196      827.608
  359      332.657      827.647
  360      333.119      827.673
  361      333.581      827.694
  362      334.043      827.719
  363      334.504      827.744
  364      334.966      827.776
  365      335.427      827.803
  366      335.888      827.827
  367       336.35      827.862
  368      336.811      827.895
  369      337.272      827.931
  370      337.733      827.969
  371      338.194      828.028
  372      338.655      828.077
  373      339.115      828.111
  374      339.576      828.149
  375      340.037      828.188
  376      340.497      828.219
  377      340.958      828.277
  378      341.418      828.353
  379      341.879      828.449
  380      342.339      828.533
  381      342.799      828.611
  382      343.259      828.707
  383      343.719      828.791
  384      344.179      828.835
  385      344.639      828.871
  386      345.099       828.91
  387      345.559      828.969
  388      346.018      829.015
  389      346.478      829.044
  390      346.937      829.086
  391      347.397      829.156
  392      347.856      829.263
  393      348.315      829.368
  394      348.774      829.469
  395      349.234       829.55
  396      349.693      829.628
  397      350.152      829.728
  398       350.61      829.824
  399      351.069      829.908
  400      351.528      829.995
  401      351.987      830.079
  402      352.445      830.166
  403      352.904      830.259
  404      353.362      830.341
  405       353.82       830.43
  406      354.279      830.513
  407      354.737      830.576
  408      355.195      830.641
  409      355.653      830.721
  410      356.111      830.794
  411      356.569       830.87
  412      357.027      830.955
  413      357.484       831.03
  414      357.942      831.081
  415      358.399        831.1
  416      358.857      831.134
  417      359.314      831.196
  418      359.772      831.283
  419      360.229      831.365
  420      360.686      831.432
  421      361.143      831.518
  422        361.6      831.598
  423      362.057      831.678
  424      362.514      831.762
  425      362.971      831.843
  426      363.427       831.92
  427      363.884      831.988
  428       364.34      832.053
  429      364.797      832.111
  430      365.253      832.166
  431      365.709      832.209
  432      366.166      832.252
  433      366.622      832.283
  434      367.078      832.306
  435      367.534      832.359
  436       367.99      832.426
  437      368.445      832.494
  438      368.901      832.575
  439      369.357      832.655
  440      369.812      832.734
  441      370.268      832.837
  442      370.723      832.928
  443      371.179      833.016
  444      371.634      833.105
  445      372.089      833.197
  446      372.544      833.306
  447      372.999      833.446
  448      373.454      833.611
  449      373.909       833.78
  450      374.364       833.94
  451      374.818      834.083
  452      375.273      834.233
  453      375.727      834.397
  454      376.182      834.558
  455      376.636      834.712
  456       377.09      834.863
  457      377.545      835.009
  458      377.999      835.151
  459      378.453      835.285
  460      378.907      835.417
  461      379.361      835.552
  462      379.814      835.699
  463      380.268      835.872
  464      380.722      836.067
  465      381.175       836.24
  466      381.629      836.404
  467      382.082      836.579
  468      382.535      836.744
  469      382.989      836.894
  470      383.442      837.044
  471      383.895       837.19
  472      384.348      837.344
  473      384.801        837.5
  474      385.253      837.654
  475      385.706      837.795
  476      386.159      837.939
  477      386.611      838.094
  478      387.064      838.266
  479      387.516      838.462
  480      387.968      838.657
  481      388.421      838.867
  482      388.873       839.08
  483      389.325      839.302
  484      389.777      839.544
  485      390.229      839.791
  486      390.681      840.073
  487      391.132      840.385
  488      391.584      840.676
  489      392.035      840.938
  490      392.487      841.188
  491      392.938      841.425
  492       393.39      841.677
  493      393.841      841.928
  494      394.292       842.17
  495      394.743      842.405
  496      395.194      842.645
  497      395.645      842.892
  498      396.096      843.123
  499      396.546      843.341
  500      396.997      843.556
  501      397.448       843.77
  502      397.898      843.992
  503      398.349      844.229
  504      398.799      844.485
  505      399.249      844.763
  506      399.699      845.062
  507      400.149       845.35
  508      400.599      845.633
  509      401.049      845.934
  510      401.499       846.26
  511      401.949      846.578
  512      402.398      846.887
  513      402.848      847.179
  514      403.297      847.452
  515      403.747      847.721
  516      404.196      848.022
  517      404.645      848.328
  518      405.094      848.621
  519      405.543      848.904
  520      405.992      849.185
  521      406.441      849.476
  522       406.89      849.753
  523      407.339      850.038
  524      407.787      850.327
  525      408.236      850.597
  526      408.684      850.879
  527      409.132      851.171
  528      409.581       851.46
  529      410.029      851.748
  530      410.477      852.033
  531      410.925      852.326
  532      411.373       852.65
  533      411.821      852.989
  534      412.269      853.326
  535      412.716      853.647
  536      413.164      853.948
  537      413.611       854.24
  538      414.059      854.535
  539      414.506       854.83
  540      414.953      855.136
  541        415.4       855.44
  542      415.847      855.725
  543      416.294      856.025
  544      416.741      856.325
  545      417.188      856.631
  546      417.635       856.93
  547      418.081      857.222
  548      418.528      857.517
  549      418.974      857.815
  550      419.421      858.104
  551      419.867      858.393
  552      420.313      858.706
  553      420.759      859.006
  554      421.205      859.306
  555      421.651      859.636
  556      422.097       859.98
  557      422.543      860.312
  558      422.989      860.631
  559      423.434      860.947
  560       423.88       861.27
  561      424.325      861.616
  562       424.77      861.976
  563      425.216      862.354
  564      425.661      862.727
  565      426.106      863.082
  566      426.551      863.437
  567      426.996      863.805
  568       427.44      864.185
  569      427.885      864.562
  570       428.33      864.967
  571      428.774      865.398
  572      429.219      865.826
  573      429.663      866.234
  574      430.107      866.649
  575      430.551      867.084
  576      430.996      867.529
  577       431.44      867.968
  578      431.883        868.4
  579      432.327      868.826
  580      432.771      869.229
  581      433.215      869.628
  582      433.658      870.034
  583      434.102      870.443
  584      434.545      870.836
  585      434.988      871.232
  586      435.431      871.632
  587      435.875      872.009
  588      436.318      872.396
  589      436.761      872.833
  590      437.203      873.314
  591      437.646      873.821
  592      438.089      874.365
  593      438.531      874.943
  594      438.974       875.55
  595      439.416      876.193
  596      439.859      876.881
  597      440.301      877.597
  598      440.743      878.328
  599      441.185      879.091
  600      441.627      879.887
  601      442.069      880.706
  602       442.51      881.572
  603      442.952      882.484
  604      443.394      883.418
  605      443.835      884.365
  606      444.277      885.326
  607      444.718      886.321
  608      445.159      887.368
  609        445.6      888.482
  610      446.041      889.655
  611      446.482      890.858
  612      446.923      892.106
  613      447.364      893.401
  614      447.804       894.75
  615      448.245      896.188
  616      448.685      897.725
  617      449.126      899.312
  618      449.566      900.955
  619      450.006      902.667
  620      450.447       904.43
  621      450.887      906.254
  622      451.326      908.169
  623      451.766      910.164
  624      452.206      912.242
  625      452.646      914.423
  626      453.085      916.731
  627      453.525      919.138
  628      453.964      921.664
  629      454.403      924.341
  630      454.843      927.158
  631      455.282      930.138
  632      455.721      933.289
  633       456.16       936.57
  634      456.599       939.99
  635      457.037       943.57
  636      457.476      947.339
  637      457.915      951.337
  638      458.353      955.558
  639      458.791      959.968
  640       459.23       964.56
  641      459.668      969.338
  642      460.106      974.336
  643      460.544      979.583
  644      460.982      985.091
  645       461.42      990.843
  646      461.857      996.885
  647      462.295      1003.29
  648      462.733      1010.03
  649       463.17      1017.08
  650      463.607      1024.47
  651      464.045      1032.27
  652      464.482      1040.48
  653      464.919      1049.17
  654      465.356      1058.34
  655      465.793      1067.91
  656       466.23      1077.85
  657      466.666      1088.33
  658      467.103      1099.45
  659      467.539      1111.23
  660      467.976      1123.57
  661      468.412      1136.48
  662      468.848      1150.01
  663      469.284      1164.27
  664       469.72      1179.25
  665      470.156      1194.88
  666      470.592      1211.21
  667      471.028      1228.32
  668      471.464      1246.38
  669      471.899      1265.39
  670      472.335      1285.34
  671       472.77      1306.18
  672      473.205      1327.93
  673      473.641      1350.79
  674      474.076      1374.91
  675      474.511      1400.31
  676      474.946      1427.04
  677       475.38      1454.99
  678      475.815      1484.11
  679       476.25      1514.48
  680      476.684      1546.25
  681      477.119      1579.27
  682      477.553      1613.59
  683      477.987      1649.56
  684      478.421      1687.11
  685      478.856      1726.33
  686      479.289       1767.4
  687      479.723      1810.15
  688      480.157      1854.53
  689      480.591       1900.9
  690      481.024      1949.21
  691      481.458      1999.66
  692      481.891      2052.39
  693      482.324      2107.07
  694      482.758      2163.82
  695      483.191      2222.64
  696      483.624      2283.47
  697      484.057      2346.34
  698      484.489      2411.22
  699      484.922      2478.14
  700      485.355      2547.05
  701      485.787      2618.28
  702       486.22      2692.32
  703      486.652      2768.92
  704      487.084      2847.64
  705      487.516       2928.3
  706      487.948      3010.86
  707       488.38       3095.9
  708      488.812      3183.88
  709      489.244      3274.38
  710      489.676      3366.63
  711      490.107      3460.86
  712      490.539       3557.7
  713       490.97      3656.93
  714      491.401      3758.46
  715      491.832      3862.29
  716      492.263      3968.01
  717      492.694      4075.59
  718      493.125      4185.23
  719      493.556      4296.74
  720      493.987      4410.14
  721      494.417      4525.44
  722      494.848       4642.3
  723      495.278      4760.03
  724      495.708      4878.33
  725      496.139      4997.42
  726      496.569      5117.28
  727      496.999      5237.57
  728      497.429         5358
  729      497.858      5478.99
  730      498.288      5600.35
  731      498.718      5721.81
  732      499.147      5843.15
  733      499.577      5964.44
  734      500.006      6086.07
  735      500.435       6207.4
  736      500.864      6327.82
  737      501.293      6447.58
  738      501.722      6566.42
  739      502.151      6684.34
  740       502.58      6801.88
  741      503.008      6919.01
  742      503.437      7034.98
  743      503.865      7149.41
  744      504.293      7262.23
  745      504.722      7373.05
  746       505.15       7482.1
  747      505.578      7589.15
  748      506.006      7694.04
  749      506.434      7797.05
  750      506.861      7897.77
  751      507.289      7995.78
  752      507.716      8090.97
  753      508.144       8183.1
  754      508.571      8272.56
  755      508.998      8359.93
  756      509.425         8445
  757      509.852      8527.95
  758      510.279      8608.82
  759      510.706      8687.53
  760      511.133      8763.84
  761       511.56      8837.86
  762      511.986       8909.2
  763      512.412      8977.46
  764      512.839      9043.06
  765      513.265      9106.17
  766      513.691      9166.89
  767      514.117      9225.24
  768      514.543      9281.16
  769      514.969       9334.8
  770      515.395      9385.67
  771       515.82      9433.43
  772      516.246      9478.41
  773      516.671      9520.32
  774      517.096      9559.38
  775      517.522      9595.87
  776      517.947      9630.06
  777      518.372      9661.35
  778      518.797      9689.26
  779      519.222      9714.06
  780      519.646      9735.76
  781      520.071      9754.53
  782      520.495      9770.96
  783       520.92      9785.17
  784      521.344      9796.56
  785      521.768      9805.16
  786      522.192      9811.04
  787      522.616      9813.81
  788       523.04      9813.33
  789      523.464      9809.66
  790      523.888      9802.64
  791      524.311      9792.69
  792      524.735      9779.56
  793      525.158       9762.9
  794      525.581      9743.15
  795      526.005      9720.31
  796      526.428      9694.52
  797      526.851      9665.87
  798      527.274      9634.17
  799      527.696      9599.33
  800      528.119       9561.5
  801      528.542       9520.9
  802      528.964      9477.03
  803      529.386      9429.47
  804      529.809      9378.59
  805      530.231      9324.72
  806      530.653      9268.18
  807      531.075      9208.99
  808      531.497       9146.4
  809      531.918      9080.18
  810       532.34      9010.87
  811      532.761      8939.27
  812      533.183      8865.23
  813      533.604      8788.07
  814      534.025      8708.04
  815      534.447      8625.13
  816      534.868       8539.2
  817      535.289      8450.67
  818      535.709      8359.58
  819       536.13      8265.82
  820      536.551      8169.57
  821      536.971      8070.93
  822      537.392      7970.03
  823      537.812      7867.26
  824      538.232      7763.35
  825      538.652      7658.46
  826      539.072       7552.2
  827      539.492      7444.66
  828      539.912      7336.18
  829      540.331      7227.05
  830      540.751      7116.86
  831       541.17      7005.72
  832       541.59      6893.94
  833      542.009      6781.82
  834      542.428      6669.22
  835      542.847      6555.79
  836      543.266      6442.18
  837      543.685      6329.03
  838      544.104      6216.03
  839      544.522       6103.4
  840      544.941      5991.14
  841      545.359      5878.73
  842      545.778      5766.22
  843      546.196      5654.35
  844      546.614      5543.51
  845      547.032      5433.74
  846       547.45      5325.46
  847      547.867      5218.47
  848      548.285      5112.92
  849      548.703      5008.97
  850       549.12      4906.34
  851      549.538      4805.43
  852      549.955      4706.68
  853      550.372      4610.19
  854      550.789      4516.14
  855      551.206       4424.1
  856      551.623      4333.52
  857      552.039      4244.68
  858      552.456      4157.46
  859      552.873      4071.59
  860      553.289      3987.08
  861      553.705      3904.16
  862      554.121      3822.77
  863      554.537      3743.31
  864      554.953      3666.16
  865      555.369      3590.81
  866      555.785      3517.04
  867      556.201      3444.87
  868      556.616      3374.23
  869      557.032      3305.04
  870      557.447      3236.97
  871      557.862      3170.56
  872      558.277      3106.22
  873      558.692      3043.68
  874      559.107      2983.14
  875      559.522      2924.26
  876      559.937      2866.63
  877      560.351      2809.88
  878      560.766       2754.6
  879       561.18      2701.41
  880      561.595      2650.09
  881      562.009      2600.51
  882      562.423      2552.31
  883      562.837       2505.1
  884       563.25       2458.7
  885      563.664      2413.36
  886      564.078       2369.1
  887      564.491      2325.83
  888      564.905       2283.7
  889      565.318      2243.03
  890      565.731      2203.82
  891      566.144      2165.88
  892      566.557      2128.79
  893       566.97      2092.63
  894      567.383      2057.67
  895      567.795      2023.79
  896      568.208      1990.86
  897       568.62      1958.72
  898      569.033      1927.33
  899      569.445      1896.88
  900      569.857      1867.47
  901      570.269      1838.96
  902      570.681      1811.16
  903      571.093      1784.24
  904      571.504      1758.16
  905      571.916      1732.73
  906      572.327       1708.1
  907      572.739       1684.1
  908       573.15      1660.79
  909      573.561      1638.31
  910      573.972      1616.46
  911      574.383      1595.09
  912      574.794      1574.14
  913      575.204      1553.56
  914      575.615      1533.38
  915      576.025      1513.59
  916      576.436       1494.3
  917      576.846      1475.64
  918      577.256       1457.6
  919      577.666      1440.17
  920      578.076      1423.24
  921      578.486      1406.86
  922      578.896      1390.89
  923      579.305      1375.19
  924      579.715       1359.7
  925      580.124      1344.37
  926      580.533      1329.35
  927      580.942      1314.76
  928      581.351      1300.56
  929       581.76      1286.74
  930      582.169      1273.31
  931      582.578      1260.23
  932      582.986      1247.57
  933      583.395       1235.3
  934      583.803      1223.34
  935      584.212      1211.68
  936       584.62      1200.37
  937      585.028      1189.35
  938      585.436      1178.59
  939      585.843      1168.16
  940      586.251      1158.08
  941      586.659      1148.29
  942      587.066      1138.79
  943      587.474      1129.62
  944      587.881      1120.74
  945      588.288      1112.15
  946      588.695      1103.83
  947      589.102      1095.74
  948      589.509       1087.9
  949      589.915       1080.3
  950      590.322       1072.9
  951      590.728      1065.71
  952      591.135      1058.75
  953      591.541      1051.97
  954      591.947      1045.35
  955      592.353      1038.91
  956      592.759      1032.62
  957      593.165      1026.47
  958      593.571      1020.47
  959      593.976      1014.57
  960      594.382      1008.81
  961      594.787      1003.23
  962      595.192      997.837
  963      595.597      992.671
  964      596.002       987.64
  965      596.407      982.708
  966      596.812      977.904
  967      597.217      973.232
  968      597.621       968.69
  969      598.026      964.297
  970       598.43      960.082
  971      598.834      956.065
  972      599.238      952.192
  973      599.642      948.419
  974      600.046      944.754
  975       600.45      941.194
  976      600.854      937.687
  977      601.257      934.258
  978      601.661      930.939
  979      602.064      927.705
  980      602.467      924.537
  981       602.87      921.421
  982      603.273      918.414
  983      603.676      915.537
  984      604.079       912.75
  985      604.481      910.035
  986      604.884      907.411
  987      605.286      904.908
  988      605.689      902.488
  989      606.091      900.168
  990      606.493      897.981
  991      606.895      895.882
  992      607.297      893.821
  993      607.698      891.829
  994        608.1      889.916
  995      608.501      888.036
  996      608.903      886.187
  997      609.304      884.373
  998      609.705      882.592
  999      610.106      880.857
 1000      610.507      879.178
 1001      610.908      877.583
 1002      611.308      876.041
 1003      611.709      874.506
 1004      612.109      872.988
 1005       612.51      871.493
 1006       612.91      870.029
 1007       613.31      868.628
 1008       613.71      867.295
 1009       614.11       866.01
 1010       614.51      864.758
 1011      614.909      863.514
 1012      615.309      862.296
 1013      615.708       861.16
 1014      616.108       860.08
 1015      616.507      859.016
 1016      616.906      857.989
 1017      617.305      857.013
 1018      617.704      856.044
 1019      618.102      855.075
 1020      618.501      854.124
 1021      618.899      853.194
 1022      619.298      852.261
 1023      619.696      851.343
 1024      620.094      850.479
 1025      620.492       849.64
 1026       620.89      848.813
 1027      621.288      848.005
 1028      621.686      847.216
 1029      622.083      846.465
 1030       622.48      845.733
 1031      622.878      845.022
 1032      623.275      844.322
 1033      623.672       843.63
 1034      624.069      842.961
 1035      624.466      842.334
 1036      624.863      841.725
 1037      625.259      841.103
 1038      625.656      840.504
 1039      626.052       839.94
 1040      626.448      839.358
 1041      626.844      838.755
 1042      627.241      838.197
 1043      627.636      837.685
 1044      628.032      837.197
 1045      628.428      836.714
 1046      628.823      836.246
 1047      629.219      835.807
 1048      629.614      835.354
 1049      630.009       834.89
 1050      630.404      834.435
 1051      630.799      833.958
 1052      631.194      833.508
 1053      631.589      833.086
 1054      631.984      832.647
 1055      632.378      832.228
 1056      632.772      831.832
 1057      633.167      831.459
 1058      633.561      831.087
 1059      633.955      830.725
 1060      634.349      830.385
 1061      634.743      830.062
 1062      635.136      829.758
 1063       635.53      829.431
 1064      635.923      829.079
 1065      636.316      828.759
 1066       636.71      828.447
 1067      637.103      828.149
 1068      637.496      827.875
 1069      637.888      827.605
 1070      638.281      827.313
 1071      638.674      827.025
 1072      639.066      826.754
 1073      639.459       826.49
 1074      639.851       826.23
 1075      640.243      825.947
 1076      640.635      825.664
 1077      641.027      825.404
 1078      641.419      825.186
 1079       641.81      824.978
 1080      642.202       824.76
 1081      642.593      824.545
 1082      642.984      824.356
 1083      643.375      824.178
 1084      643.766      823.995
 1085      644.157      823.804
 1086      644.548      823.623
 1087      644.939      823.443
 1088      645.329      823.248
 1089       645.72      823.054
 1090       646.11      822.851
 1091        646.5      822.631
 1092       646.89      822.411
 1093       647.28      822.215
 1094       647.67      822.043
 1095       648.06      821.895
 1096      648.449      821.755
 1097      648.839       821.62
 1098      649.228      821.489
 1099      649.617      821.365
 1100      650.007      821.239
 1101      650.396      821.107
 1102      650.784      820.953
 1103      651.173       820.79
 1104      651.562      820.642
 1105       651.95      820.489
 1106      652.339      820.335
 1107      652.727      820.203
 1108      653.115      820.062
 1109      653.503        819.9
 1110      653.891      819.724
 1111      654.279      819.544
 1112      654.666      819.374
 1113      655.054      819.246
 1114      655.441      819.112
 1115      655.828       818.95
 1116      656.216      818.811
 1117      656.603      818.685
 1118      656.989      818.528
 1119      657.376       818.36
 1120      657.763      818.202
 1121      658.149      818.075
 1122      658.536      817.977
 1123      658.922      817.896
 1124      659.308      817.807
 1125      659.694      817.696
 1126       660.08      817.586
 1127      660.466      817.495
 1128      660.852      817.412
 1129      661.237      817.347
 1130      661.623      817.287
 1131      662.008      817.222
 1132      662.393      817.141
 1133      662.778      817.057
 1134      663.163      816.971
 1135      663.548      816.878
 1136      663.933      816.759
 1137      664.317      816.664
 1138      664.702      816.608
 1139      665.086      816.544
 1140       665.47      816.488
 1141      665.854      816.455
 1142      666.238      816.405
 1143      666.622      816.332
 1144      667.006      816.253
 1145      667.389      816.167
 1146      667.773      816.079
 1147      668.156      815.997
 1148      668.539      815.884
 1149      668.923      815.764
 1150      669.305      815.669
 1151      669.688      815.594
 1152      670.071      815.536
 1153      670.454       815.45
 1154      670.836      815.344
 1155      671.218      815.263
 1156      671.601      815.188
 1157      671.983      815.082
 1158      672.365      815.012
 1159      672.747      815.002
 1160      673.128      814.956
 1161       673.51      814.887
 1162      673.891      814.808
 1163      674.273      814.724
 1164      674.654      814.661
 1165      675.035      814.595
 1166      675.416      814.518
 1167      675.797      814.449
 1168      676.177      814.375
 1169      676.558      814.287
 1170      676.938      814.199
 1171      677.319      814.134
 1172      677.699      814.061
 1173      678.079      813.972
 1174      678.459      813.867
 1175      678.839      813.748
 1176      679.219      813.635
 1177      679.598      813.532
 1178      679.978      813.432
 1179      680.357      813.309
 1180      680.736      813.202
 1181      681.115      813.148
 1182      681.494      813.098
 1183      681.873      812.999
 1184      682.252      812.864
 1185       682.63      812.725
 1186      683.009      812.597
 1187      683.387      812.472
 1188      683.765      812.356
 1189      684.143      812.246
 1190      684.521       812.14
 1191      684.899      812.053
 1192      685.277       811.95
 1193      685.654      811.831
 1194      686.032      811.727
 1195      686.409      811.631
 1196      686.786       811.53
 1197      687.163      811.423
 1198       687.54      811.299
 1199      687.917      811.177
 1200      688.294      811.047
 1201       688.67      810.913
 1202      689.046      810.774
 1203      689.423       810.63
 1204      689.799      810.483
 1205      690.175      810.337
 1206      690.551      810.217
 1207      690.927      810.109
 1208      691.302      809.995
 1209      691.678      809.897
 1210      692.053      809.802
 1211      692.428      809.708
 1212      692.804      809.622
 1213      693.179      809.547
 1214      693.553      809.447
 1215      693.928      809.333
 1216      694.303      809.236
 1217      694.677      809.136
 1218      695.052      809.018
 1219      695.426      808.929
 1220        695.8      808.881
 1221      696.174      808.829
 1222      696.548      808.743
 1223      696.921      808.616
 1224      697.295      808.483
 1225      697.669       808.38
 1226      698.042      808.291
 1227      698.415      808.201
 1228      698.788      808.117
 1229      699.161      808.028
 1230      699.534      807.902
 1231      699.907      807.746
 1232      700.279      807.604
 1233      700.652      807.485
 1234      701.024      807.381
 1235      701.396      807.312
 1236      701.768      807.248
 1237       702.14      807.173
 1238      702.512      807.088
 1239      702.883      806.991
 1240      703.255      806.894
 1241      703.626      806.761
 1242      703.998      806.623
 1243      704.369      806.532
 1244       704.74       806.47
 1245      705.111      806.421
 1246      705.481      806.365
 1247      705.852      806.294
 1248      706.222      806.212
 1249      706.593      806.129
 1250      706.963      806.048
 1251      707.333      805.951
 1252      707.703      805.842
 1253      708.073      805.733
 1254      708.442       805.72
 1255      708.812      805.783
 1256      709.181      805.786
 1257      709.551      805.748
 1258       709.92      805.716
 1259      710.289      805.627
 1260      710.658      805.474
 1261      711.027      805.351
 1262      711.395      805.265
 1263      711.764      805.202
 1264      712.132      805.142
 1265        712.5      805.055
 1266      712.869      804.968
 1267      713.236      804.871
 1268      713.604      804.753
 1269      713.972      804.654
 1270       714.34      804.564
 1271      714.707      804.451
 1272      715.074      804.322
 1273      715.442      804.205
 1274      715.809      804.107
 1275      716.176      804.041
 1276      716.542       803.99
 1277      716.909      803.937
 1278      717.276      803.879
 1279      717.642      803.813
 1280      718.008      803.751
 1281      718.374      803.687
 1282       718.74      803.599
 1283      719.106      803.509
 1284      719.472      803.449
 1285      719.838      803.406
 1286      720.203      803.357
 1287      720.568      803.316
 1288      720.934      803.292
 1289      721.299      803.269
 1290      721.664      803.223
 1291      722.029      803.182
 1292      722.393      803.146
 1293      722.758      803.121
 1294      723.122      803.108
 1295      723.486       803.08
 1296      723.851      803.026
 1297      724.215      802.955
 1298      724.578      802.897
 1299      724.942      802.861
 1300      725.306      802.833
 1301      725.669      802.808
 1302      726.033      802.794
 1303      726.396      802.798
 1304      726.759      802.793
 1305      727.122       802.78
 1306      727.485      802.767
 1307      727.847      802.739
 1308       728.21      802.713
 1309      728.572      802.689
 1310      728.935      802.653
 1311      729.297       802.61
 1312      729.659      802.577
 1313      730.021      802.545
 1314      730.382      802.488
 1315      730.744      802.429
 1316      731.105      802.388
 1317      731.467       802.36
 1318      731.828      802.372
 1319      732.189      802.407
 1320       732.55      802.399
 1321      732.911      802.356
 1322      733.271      802.306
 1323      733.632      802.261
 1324      733.992      802.242
 1325      734.352      802.243
 1326      734.713      802.222
 1327      735.072      802.199
 1328      735.432      802.181
 1329      735.792      802.164
 1330      736.152      802.148
 1331      736.511      802.159
 1332       736.87      802.175
 1333      737.229      802.149
 1334      737.589      802.114
 1335      737.947       802.08
 1336      738.306      802.011
 1337      738.665       801.93
 1338      739.023      801.869
 1339      739.382      801.806
 1340       739.74      801.743
 1341      740.098        801.7
 1342      740.456       801.67
 1343      740.814      801.623
 1344      741.171      801.556
 1345      741.529      801.483
 1346      741.886      801.411
 1347      742.244      801.375
 1348      742.601      801.343
 1349      742.958      801.292
 1350      743.314      801.249
 1351      743.671      801.218
 1352      744.028      801.203
 1353      744.384      801.202
 1354       744.74      801.203
 1355      745.097      801.099
 1356      745.453      800.936
 1357      745.809       800.84
 1358      746.164      800.776
 1359       746.52      800.719
 1360      746.875      800.672
 1361      747.231      800.628
 1362      747.586      800.571
 1363      747.941        800.5
 1364      748.296      800.438
 1365      748.651      800.378
 1366      749.005        800.3
 1367       749.36      800.219
 1368      749.714      800.166
 1369      750.069      800.133
 1370      750.423      800.093
 1371      750.777      800.046
 1372       751.13      800.022
 1373      751.484      800.019
 1374      751.838      800.018
 1375      752.191      799.999
 1376      752.544      799.956
 1377      752.897      799.912
 1378       753.25      799.877
 1379      753.603      799.858
 1380      753.956       799.84
 1381      754.309      799.802
 1382      754.661      799.739
 1383      755.013      799.654
 1384      755.365      799.563
 1385      755.717      799.475
 1386      756.069      799.403
 1387      756.421      799.368
 1388      756.773      799.326
 1389      757.124      799.258
 1390      757.476      799.188
 1391      757.827      799.152
 1392      758.178      799.113
 1393      758.529      799.051
 1394      758.879      798.974
 1395       759.23      798.883
 1396      759.581       798.83
 1397      759.931      798.817
 1398      760.281      798.807
 1399      760.631      798.778
 1400      760.981      798.758
 1401      761.331       798.75
 1402      761.681       798.73
 1403       762.03      798.704
 1404      762.379      798.635
 1405      762.729       798.58
 1406      763.078      798.541
 1407      763.427        798.5
 1408      763.776      798.462
 1409      764.124      798.424
 1410      764.473       798.38
 1411      764.821      798.323
 1412      765.169      798.266
 1413      765.517      798.194
 1414      765.865      798.122
 1415      766.213      798.094
 1416      766.561      798.084
 1417      766.909      798.045
 1418      767.256      797.982
 1419      767.603      797.878
 1420       767.95      797.758
 1421      768.297      797.671
 1422      768.644      797.584
 1423      768.991      797.527
 1424      769.337      797.505
 1425      769.684      797.455
 1426       770.03      797.387
 1427      770.376      797.324
 1428      770.722      797.258
 1429      771.068       797.19
 1430      771.414      797.133
 1431      771.759      797.074
 1432      772.105      797.021
 1433       772.45      797.015
 1434      772.795       797.03
 1435       773.14      797.023
 1436      773.485      796.995
 1437       773.83      796.973
 1438      774.174      796.952
 1439      774.519      796.923
 1440      774.863      796.902
 1441      775.207      796.872
 1442      775.551       796.81
 1443      775.895      796.742
 1444      776.239      796.694
 1445      776.582      796.667
 1446      776.926       796.63
 1447      777.269      796.571
 1448      777.612      796.489
 1449      777.955      796.423
 1450      778.298      796.378
 1451      778.641      796.353
 1452      778.983      796.324
 1453      779.326      796.262
 1454      779.668      796.188
 1455       780.01      796.142
 1456      780.352      796.118
 1457      780.694      796.086
 1458      781.036      796.038
 1459      781.377       795.99
 1460      781.719      795.926
 1461       782.06      795.859
 1462      782.401      795.815
 1463      782.742      795.793
 1464      783.083      795.767
 1465      783.424      795.714
 1466      783.764      795.659
 1467      784.105      795.628
 1468      784.445      795.583
 1469      784.785      795.522
 1470      785.125      795.479
 1471      785.465      795.451
 1472      785.805      795.439
 1473      786.144      795.429
 1474      786.484      795.394
 1475      786.823      795.338
 1476      787.162      795.286
 1477      787.501      795.244
 1478       787.84      795.209
 1479      788.178      795.176
 1480      788.517      795.117
 1481      788.855      795.064
 1482      789.194      795.035
 1483      789.532      795.007
 1484       789.87      794.977
 1485      790.208      794.973
 1486      790.545      794.978
 1487      790.883      794.953
 1488       791.22      794.893
 1489      791.557      794.842
 1490      791.894      794.827
 1491      792.231      794.805
 1492      792.568      794.762
 1493      792.905      794.731
 1494      793.241      794.718
 1495      793.578      794.702
 1496      793.914      794.668
 1497       794.25      794.583
 1498      794.586      794.476
 1499      794.922      794.394
 1500      795.257      794.345
 1501      795.593      794.277
 1502      795.928      794.162
 1503      796.263      794.056
 1504      796.598      793.974
 1505      796.933      793.922
 1506      797.268      793.865
 1507      797.603      793.822
 1508      797.937      793.779
 1509      798.271      793.721
 1510      798.606      793.664
 1511       798.94      793.618
 1512      799.274      793.584
 1513      799.607      793.574
 1514      799.941      793.577
 1515      800.274      793.569
 1516      800.608      793.522
 1517      800.941      793.463
 1518      801.274      793.423
 1519      801.607      793.389
 1520      801.939      793.351
 1521      802.272      793.314
 1522      802.604      793.287
 1523      802.936      793.258
 1524      803.269      793.215
 1525      803.601       793.16
 1526      803.932       793.14
 1527      804.264      793.129
 1528      804.596      793.125
 1529      804.927      793.127
 1530      805.258      793.123
 1531      805.589      793.103
 1532       805.92      793.083
 1533      806.251      793.029
 1534      806.582      792.932
 1535      806.912      792.845
 1536      807.242      792.778
 1537      807.573      792.738
 1538      807.903      792.715
 1539      808.232      792.678
 1540      808.562      792.631
 1541      808.892      792.566
 1542      809.221      792.506
 1543      809.551      792.475
 1544       809.88      792.454
 1545      810.209       792.42
 1546      810.538      792.379
 1547      810.866      792.353
 1548      811.195      792.334
 1549      811.523      792.301
 1550      811.851       792.26
 1551       812.18      792.238
 1552      812.507      792.236
 1553      812.835      792.242
 1554      813.163      792.239
 1555       813.49      792.218
 1556      813.818      792.162
 1557      814.145      792.076
 1558      814.472      791.987
 1559      814.799      791.912
 1560      815.126      791.838
 1561      815.452      791.769
 1562      815.779      791.715
 1563      816.105      791.663
 1564      816.431      791.614
 1565      816.757      791.579
 1566      817.083      791.558
 1567      817.409      791.522
 1568      817.734      791.487
 1569       818.06      791.477
 1570      818.385      791.491
 1571       818.71      791.492
 1572      819.035      791.452
 1573       819.36      791.402
 1574      819.685      791.349
 1575      820.009      791.289
 1576      820.333      791.232
 1577      820.658      791.177
 1578      820.982      791.142
 1579      821.305      791.266
 1580      821.629      791.487
 1581      821.953      791.599
 1582      822.276      791.649
 1583        822.6      791.648
 1584      822.923      791.628
 1585      823.246        791.6
 1586      823.569      791.543
 1587      823.891      791.477
 1588      824.214      791.423
 1589      824.536      791.396
 1590      824.858      791.359
 1591       825.18      791.287
 1592      825.502      791.227
 1593      825.824      791.221
 1594      826.146      791.215
 1595      826.467      791.164
 1596      826.789      791.113
 1597       827.11      791.088
 1598      827.431      791.079
 1599      827.752      791.083
 1600      828.072      791.076
 1601      828.393       791.04
 1602      828.713      790.998
 1603      829.034       790.97
 1604      829.354      790.964
 1605      829.674      790.959
 1606      829.993      790.946
 1607      830.313      790.945
 1608      830.633      790.943
 1609      830.952      790.927
 1610      831.271       790.91
 1611       831.59      790.874
 1612      831.909      790.831
 1613      832.228      790.787
 1614      832.546       790.71
 1615      832.865      790.619
 1616      833.183      790.548
 1617      833.501      790.501
 1618      833.819      790.443
 1619      834.137      790.374
 1620      834.455       790.31
 1621      834.772      790.258
 1622      835.089      790.209
 1623      835.407      790.146
 1624      835.724      790.097
 1625       836.04      790.062
 1626      836.357      790.035
 1627      836.674      789.984
 1628       836.99      789.919
 1629      837.306      789.845
 1630      837.623      789.765
 1631      837.939      789.691
 1632      838.254      789.617
 1633       838.57      789.554
 1634      838.886      789.518
 1635      839.201      789.486
 1636      839.516      789.444
 1637      839.831      789.406
 1638      840.146      789.354
 1639      840.461      789.286
 1640      840.775      789.244
 1641       841.09      789.217
 1642      841.404      789.196
 1643      841.718      789.173
 1644      842.032      789.121
 1645      842.346      789.044
 1646      842.659      788.978
 1647      842.973      788.918
 1648      843.286      788.856
 1649      843.599      788.796
 1650      843.912      788.755
 1651      844.225      788.717
 1652      844.538      788.641
 1653      844.851      788.546
 1654      845.163      788.473
 1655      845.475      788.417
 1656      845.787      788.375
 1657      846.099      788.358
 1658      846.411      788.347
 1659      846.723      788.327
 1660      847.034      788.304
 1661      847.345      788.296
 1662      847.657      788.312
 1663      847.968       788.29
 1664      848.278      788.229
 1665      848.589      788.184
 1666        848.9      788.137
 1667       849.21      788.072
 1668       849.52      788.027
 1669       849.83      787.995
 1670       850.14      787.977
 1671       850.45      787.946
 1672      850.759      787.901
 1673      851.069      787.873
 1674      851.378      787.846
 1675      851.687      787.819
 1676      851.996       787.81
 1677      852.305      787.801
 1678      852.614      787.798
 1679      852.922      787.784
 1680       853.23      787.613
 1681      853.539      787.332
 1682      853.847      787.145
 1683      854.154      787.017
 1684      854.462      786.939
 1685       854.77      786.866
 1686      855.077      786.795
 1687      855.384      786.737
 1688      855.691       786.68
 1689      855.998      786.635
 1690      856.305      786.576
 1691      856.612      786.524
 1692      856.918      786.502
 1693      857.224      786.479
 1694       857.53      786.405
 1695      857.836      786.325
 1696      858.142       786.27
 1697      858.448      786.234
 1698      858.753      786.191
 1699      859.059      786.137
 1700      859.364      786.067
 1701      859.669      785.991
 1702      859.974      785.931
 1703      860.278      785.889
 1704      860.583      785.867
 1705      860.887      785.847
 1706      861.192      785.814
 1707      861.496      785.779
 1708        861.8      785.726
 1709      862.103      785.654
 1710      862.407      785.596
 1711       862.71      785.562
 1712      863.014      785.547
 1713      863.317       785.52
 1714       863.62      785.492
 1715      863.922      785.478
 1716      864.225       785.48
 1717      864.527      785.474
 1718       864.83       785.45
 1719      865.132      785.426
 1720      865.434      785.401
 1721      865.736      785.388
 1722      866.037      785.382
 1723      866.339      785.369
 1724       866.64      785.358
 1725      866.941      785.358
 1726      867.242      785.337
 1727      867.543      785.295
 1728      867.844      785.276
 1729      868.145      785.259
 1730      868.445       785.24
 1731      868.745       785.23
 1732      869.045      785.204
 1733      869.345      785.183
 1734      869.645      785.166
 1735      869.944      785.132
 1736      870.244      785.105
 1737      870.543      785.078
 1738      870.842      785.046
 1739      871.141      785.016
 1740       871.44      784.995
 1741      871.739      784.976
 1742      872.037      784.949
 1743      872.335      784.924
 1744      872.634       784.91
 1745      872.931      784.925
 1746      873.229      784.962
 1747      873.527      784.989
 1748      873.824       785.01
 1749      874.122      785.024
 1750      874.419      785.023
 1751      874.716       785.02
 1752      875.013      785.016
 1753      875.309      785.025
 1754      875.606      785.035
 1755      875.902      785.046
 1756      876.199       785.06
 1757      876.495      785.049
 1758       876.79      785.016
 1759      877.086       784.99
 1760      877.382      784.974
 1761      877.677      784.953
 1762      877.972      784.913
 1763      878.267       784.85
 1764      878.562      784.821
 1765      878.857      784.829
 1766      879.152      784.823
 1767      879.446      784.819
 1768       879.74      784.822
 1769      880.034      784.813
 1770      880.328      784.808
 1771      880.622      784.787
 1772      880.916      784.752
 1773      881.209      784.715
 1774      881.502      784.673
 1775      881.795      784.627
 1776      882.088      784.582
 1777      882.381      784.539
 1778      882.674      784.491
 1779      882.966      784.455
 1780      883.258      784.416
 1781      883.551      784.366
 1782      883.843      784.322
 1783      884.134      784.306
 1784      884.426      784.286
 1785      884.717       784.26
 1786      885.009      784.252
 1787        885.3      784.274
 1788      885.591      784.304
 1789      885.882      784.321
 1790      886.172      784.318
 1791      886.463      784.318
 1792      886.753      784.323
 1793      887.043      784.328
 1794      887.333      784.325
 1795      887.623      784.304
 1796      887.913      784.262
 1797      888.202      784.236
 1798      888.492      784.228
 1799      888.781      784.231
 1800       889.07      784.239
 1801      889.359      784.253
 1802      889.647      784.272
 1803      889.936      784.286
 1804      890.224       784.28
 1805      890.512      784.262
 1806        890.8      784.236
 1807      891.088      784.205
 1808      891.376      784.193
 1809      891.663      784.193
 1810      891.951      784.195
 1811      892.238      784.207
 1812      892.525      784.214
 1813      892.812      784.212
 1814      893.099      784.209
 1815      893.385      784.201
 1816      893.671      784.198
 1817      893.958      784.199
 1818      894.244      784.186
 1819       894.53      784.194
 1820      894.815      784.219
 1821      895.101       784.24
 1822      895.386      784.259
 1823      895.671      784.279
 1824      895.956      784.289
 1825      896.241      784.279
 1826      896.526      784.248
 1827       896.81      784.231
 1828      897.095      784.214
 1829      897.379      784.179
 1830      897.663      784.155
 1831      897.947      784.139
 1832      898.231      784.122
 1833      898.514      784.117
 1834      898.798      784.097
 1835      899.081      784.055
 1836      899.364      784.033
 1837      899.647      784.023
 1838      899.929      784.028
 1839      900.212      784.035
 1840      900.494      784.043
 1841      900.776      784.032
 1842      901.058      784.006
 1843       901.34      783.991
 1844      901.622      783.989
 1845      901.904      783.985
 1846      902.185       783.96
 1847      902.466      783.916
 1848      902.747      783.875
 1849      903.028      783.829
 1850      903.309      783.775
 1851      903.589      783.734
 1852       903.87      783.684
 1853       904.15      783.628
 1854       904.43      783.587
 1855       904.71       783.54
 1856      904.989      783.474
 1857      905.269      783.416
 1858      905.548      783.383
 1859      905.827      783.364
 1860      906.106      783.355
 1861      906.385       783.35
 1862      906.664      783.356
 1863      906.942       783.36
 1864      907.221      783.366
 1865      907.499      783.359
 1866      907.777      783.338
 1867      908.055      783.321
 1868      908.332      783.294
 1869       908.61      783.261
 1870      908.887      783.224
 1871      909.164      783.166
 1872      909.441      783.114
 1873      909.718      783.082
 1874      909.995      783.078
 1875      910.271      783.087
 1876      910.548      783.083
 1877      910.824      783.074
 1878        911.1      783.076
 1879      911.375      783.111
 1880      911.651      783.114
 1881      911.927      783.079
 1882      912.202      783.043
 1883      912.477      783.008
 1884      912.752      782.967
 1885      913.027      782.939
 1886      913.301      782.928
 1887      913.576      782.919
 1888       913.85      782.898
 1889      914.124      782.878
 1890      914.398      782.874
 1891      914.672      782.882
 1892      914.945      782.892
 1893      915.219      782.885
 1894      915.492      782.854
 1895      915.765      782.826
 1896      916.038      782.819
 1897      916.311      782.834
 1898      916.583      782.842
 1899      916.856      782.833
 1900      917.128      782.821
 1901        917.4       782.81
 1902      917.672      782.798
 1903      917.944      782.792
 1904      918.215      782.797
 1905      918.486      782.814
 1906      918.758      782.832
 1907      919.029       782.83
 1908      919.299       782.83
 1909       919.57      782.822
 1910      919.841      782.812
 1911      920.111      782.805
 1912      920.381      782.793
 1913      920.651      782.777
 1914      920.921      782.762
 1915      921.191      782.748
 1916       921.46       782.74
 1917      921.729      782.746
 1918      921.999       782.74
 1919      922.268      782.744
 1920      922.536      782.751
 1921      922.805      782.747
 1922      923.073      782.731
 1923      923.342      782.702
 1924       923.61      782.667
 1925      923.878      782.652
 1926      924.145      782.666
 1927      924.413      782.694
 1928       924.68      782.726
 1929      924.948      782.756
 1930      925.215      782.785
 1931      925.482      782.811
 1932      925.748      782.829
 1933      926.015       782.83
 1934      926.281      782.825
 1935      926.547      782.822
 1936      926.813      782.809
 1937      927.079      782.812
 1938      927.345      782.815
 1939       927.61      782.795
 1940      927.876      782.766
 1941      928.141      782.729
 1942      928.406        782.7
 1943      928.671       782.68
 1944      928.935      782.663
 1945        929.2      782.658
 1946      929.464      782.655
 1947      929.728      782.656
 1948      929.992      782.667
 1949      930.256      782.684
 1950       930.52      782.707
 1951      930.783       782.73
 1952      931.046      782.728
 1953      931.309      782.731
 1954      931.572      782.738
 1955      931.835      782.739
 1956      932.097      782.744
 1957       932.36      782.752
 1958      932.622      782.756
 1959      932.884      782.766
 1960      933.146      782.776
 1961      933.408      782.787
 1962      933.669      782.796
 1963       933.93      782.791
 1964      934.192      782.797
 1965      934.453        782.8
 1966      934.713      782.821
 1967      934.974      782.857
 1968      935.234      782.867
 1969      935.495      782.869
 1970      935.755      782.888
 1971      936.015      782.924
 1972      936.274       782.97
 1973      936.534      782.998
 1974      936.793      783.004
 1975      937.053      782.979
 1976      937.312      782.947
 1977      937.571      782.939
 1978      937.829      782.931
 1979      938.088      782.917
 1980      938.346      782.908
 1981      938.604      782.914
 1982      938.862      782.934
 1983       939.12       782.94
 1984      939.378      782.938
 1985      939.635      782.948
 1986      939.893      782.957
 1987       940.15      782.954
 1988      940.407      782.952
 1989      940.663      782.951
 1990       940.92      782.944
 1991      941.176      782.943
 1992      941.433      782.941
 1993      941.689      782.923
 1994      941.944      782.904
 1995        942.2      782.888
 1996      942.456      782.864
 1997      942.711      782.847
 1998      942.966      782.843
 1999      943.221      782.836
 2000      943.476      782.828
 2001      943.731      782.819
 2002      943.985      782.825
 2003      944.239      782.832
 2004      944.493      782.824
 2005      944.747      782.801
 2006      945.001      782.774
 2007      945.255      782.751
 2008      945.508      782.748
 2009      945.761      782.751
 2010      946.014      782.748
 2011      946.267       782.74
 2012       946.52      782.734
 2013      946.772       782.73
 2014      947.025      782.728
 2015      947.277      782.724
 2016      947.529      782.732
 2017      947.781      782.744
 2018      948.032      782.732
 2019      948.284      782.721
 2020      948.535      782.714
 2021      948.786      782.681
 2022      949.037      782.645
 2023      949.288      782.637
 2024      949.538      782.634
 2025      949.789      782.629
 2026      950.039      782.619
 2027      950.289      782.605
 2028      950.539      782.587
 2029      950.788      782.552
 2030      951.038      782.512
 2031      951.287      782.469
 2032      951.536      782.423
 2033      951.785      782.383
 2034      952.034      782.354
 2035      952.282      782.326
 2036      952.531      782.316
 2037      952.779      782.338
 2038      953.027      782.338
 2039      953.275       782.32
 2040      953.523      782.313
 2041       953.77      782.327
 2042      954.017      782.354
 2043      954.264      782.387
 2044      954.511      782.415
 2045      954.758      782.422
 2046      955.005      782.397
 2047      955.251      782.356
