scansci Spectrometer Data File
--- Measurement Setting ---
Type: Sample Spectrum
Date: Fri Nov 22 17:58:25 2024
User: (Reserved by scansci)
Serial: (Reserved by scansci)
Channel: No. 11
Integration Time: 540
Average: 30
Boxcar: 50
Electrical Dark: No-corrected
Time Normalize: (Reserved by scansci)
Dual-beam: (Reserved by scansci)
Reference Ch: (Reserved by scansci)
--- Measurement Data ---
Pixel   Wavelength   Intensity
    0        162.5      842.927
    1      162.985      842.603
    2      163.469      842.208
    3      163.954      841.864
    4      164.439       841.55
    5      164.923      841.152
    6      165.408      840.737
    7      165.892      840.349
    8      166.377      840.016
    9      166.861      839.666
   10      167.345      839.259
   11       167.83      838.942
   12      168.314      838.773
   13      168.798      838.732
   14      169.282      838.809
   15      169.766      839.055
   16       170.25      839.607
   17      170.734      840.104
   18      171.218      840.356
   19      171.702      840.522
   20      172.185      840.524
   21      172.669      840.595
   22      173.153      840.758
   23      173.636      840.741
   24       174.12      840.641
   25      174.603      840.749
   26      175.087      841.087
   27       175.57      841.316
   28      176.053       841.35
   29      176.537      841.373
   30       177.02      841.498
   31      177.503      841.561
   32      177.986      841.491
   33      178.469      841.383
   34      178.952      841.321
   35      179.435      841.204
   36      179.918      841.018
   37      180.401       840.78
   38      180.884        840.5
   39      181.366      840.231
   40      181.849      840.044
   41      182.332      839.882
   42      182.814      839.665
   43      183.297      839.445
   44      183.779      839.257
   45      184.262      839.069
   46      184.744      838.896
   47      185.226      838.721
   48      185.708      838.508
   49      186.191      838.301
   50      186.673      838.157
   51      187.155      838.339
   52      187.637      838.477
   53      188.119      838.543
   54        188.6      838.567
   55      189.082      838.265
   56      189.564      837.725
   57      190.046      837.376
   58      190.527      837.193
   59      191.009      837.116
   60      191.491       836.87
   61      191.972      836.656
   62      192.454        836.7
   63      192.935      836.722
   64      193.416      836.747
   65      193.897       836.71
   66      194.379      836.619
   67       194.86      836.522
   68      195.341      836.422
   69      195.822      836.351
   70      196.303       836.37
   71      196.784      836.597
   72      197.265      836.879
   73      197.746      837.047
   74      198.226      837.146
   75      198.707       837.17
   76      199.188      836.656
   77      199.668      835.779
   78      200.149      835.466
   79      200.629      835.659
   80       201.11      835.933
   81       201.59      836.288
   82       202.07      836.677
   83       202.55      836.984
   84      203.031      837.318
   85      203.511      837.326
   86      203.991      837.087
   87      204.471      836.371
   88      204.951      835.351
   89      205.431      834.798
   90       205.91      834.658
   91       206.39      834.724
   92       206.87      834.707
   93      207.349      834.767
   94      207.829      834.878
   95      208.309      834.961
   96      208.788      835.123
   97      209.267      835.253
   98      209.747      835.297
   99      210.226      835.231
  100      210.705      835.103
  101      211.185      835.059
  102      211.664        835.1
  103      212.143      835.235
  104      212.622      835.383
  105      213.101      835.458
  106      213.579      835.518
  107      214.058      835.594
  108      214.537      835.683
  109      215.016      835.824
  110      215.494      836.023
  111      215.973       836.32
  112      216.452      836.655
  113       216.93      836.775
  114      217.408      836.735
  115      217.887      836.648
  116      218.365      836.542
  117      218.843      836.354
  118      219.321      836.147
  119      219.799      836.137
  120      220.278      836.269
  121      220.755      836.389
  122      221.233      836.372
  123      221.711      836.212
  124      222.189       836.12
  125      222.667       836.15
  126      223.144      836.073
  127      223.622      835.734
  128        224.1      835.417
  129      224.577       835.23
  130      225.055      835.068
  131      225.532      834.839
  132      226.009      834.647
  133      226.486      834.523
  134      226.964      834.439
  135      227.441      834.365
  136      227.918      834.392
  137      228.395       834.49
  138      228.872      834.664
  139      229.349      834.896
  140      229.826      835.078
  141      230.302      835.138
  142      230.779      835.186
  143      231.256      835.296
  144      231.732      835.381
  145      232.209      835.505
  146      232.685      835.646
  147      233.162      835.695
  148      233.638      835.729
  149      234.114       835.79
  150       234.59      835.822
  151      235.066        835.8
  152      235.543       835.75
  153      236.019      835.777
  154      236.495      835.831
  155       236.97      836.046
  156      237.446      836.372
  157      237.922      836.652
  158      238.398      836.921
  159      238.873      837.095
  160      239.349       837.35
  161      239.824      837.597
  162        240.3      837.521
  163      240.775      837.336
  164      241.251       837.32
  165      241.726      837.386
  166      242.201      837.589
  167      242.676      837.883
  168      243.151      838.163
  169      243.626      838.383
  170      244.101        838.5
  171      244.576      838.508
  172      245.051      838.221
  173      245.526      837.821
  174          246      837.582
  175      246.475      837.392
  176       246.95      837.297
  177      247.424      837.285
  178      247.899      837.318
  179      248.373      837.159
  180      248.847      836.609
  181      249.321      836.074
  182      249.796        835.6
  183       250.27       835.32
  184      250.744      835.344
  185      251.218      835.295
  186      251.692      835.285
  187      252.166      835.365
  188      252.639      835.387
  189      253.113      835.306
  190      253.587      835.298
  191       254.06      835.214
  192      254.534      835.031
  193      255.007      834.983
  194      255.481      834.901
  195      255.954      834.788
  196      256.427      834.747
  197      256.901      834.635
  198      257.374       834.54
  199      257.847      834.602
  200       258.32      834.737
  201      258.793      834.884
  202      259.266      835.036
  203      259.739       835.12
  204      260.211      835.106
  205      260.684      835.086
  206      261.157      835.203
  207      261.629      835.374
  208      262.102      835.453
  209      262.574      835.454
  210      263.046      835.449
  211      263.519      835.492
  212      263.991      835.445
  213      264.463      835.275
  214      264.935      835.244
  215      265.407      835.264
  216      265.879      835.229
  217      266.351      835.072
  218      266.823      834.798
  219      267.295      834.594
  220      267.766      834.509
  221      268.238      834.476
  222       268.71      834.441
  223      269.181       834.39
  224      269.653      834.379
  225      270.124      834.406
  226      270.595      834.391
  227      271.066      834.323
  228      271.538      834.307
  229      272.009      834.374
  230       272.48      834.536
  231      272.951      834.705
  232      273.422      834.803
  233      273.892      834.889
  234      274.363       835.03
  235      274.834      835.159
  236      275.305      835.357
  237      275.775      835.587
  238      276.246       835.72
  239      276.716      835.817
  240      277.186      835.838
  241      277.657      835.834
  242      278.127      835.923
  243      278.597      836.274
  244      279.067      836.707
  245      279.537      836.937
  246      280.007      837.016
  247      280.477      837.047
  248      280.947      837.183
  249      281.417      837.438
  250      281.886      837.687
  251      282.356      837.897
  252      282.825      838.158
  253      283.295      838.375
  254      283.764      838.423
  255      284.234      838.409
  256      284.703      838.213
  257      285.172      837.927
  258      285.641      837.718
  259       286.11      837.524
  260      286.579      837.416
  261      287.048      837.219
  262      287.517      836.996
  263      287.986      837.026
  264      288.454      837.204
  265      288.923      837.309
  266      289.392      837.311
  267       289.86      837.169
  268      290.329       837.11
  269      290.797      837.226
  270      291.265      837.308
  271      291.734       837.41
  272      292.202      837.605
  273       292.67      837.836
  274      293.138      837.969
  275      293.606      838.064
  276      294.074      838.145
  277      294.541      838.216
  278      295.009      838.354
  279      295.477      838.537
  280      295.944      838.714
  281      296.412      838.868
  282      296.879      838.986
  283      297.347      839.386
  284      297.814      839.781
  285      298.281      839.829
  286      298.749      839.897
  287      299.216      840.389
  288      299.683      841.095
  289       300.15      841.542
  290      300.616      841.896
  291      301.083      842.085
  292       301.55      842.222
  293      302.017      842.324
  294      302.483      842.336
  295       302.95      842.326
  296      303.416      842.295
  297      303.883      842.437
  298      304.349      842.761
  299      304.815      842.966
  300      305.281      843.033
  301      305.748      843.076
  302      306.214       843.11
  303       306.68      843.033
  304      307.146       842.99
  305      307.611      843.054
  306      308.077      843.052
  307      308.543      842.892
  308      309.008      842.694
  309      309.474      842.592
  310      309.939      842.553
  311      310.405      842.517
  312       310.87      842.624
  313      311.335      842.821
  314        311.8      843.149
  315      312.266      843.516
  316      312.731      843.711
  317      313.196      843.829
  318       313.66      844.106
  319      314.125      844.489
  320       314.59      844.737
  321      315.055      844.748
  322      315.519       844.47
  323      315.984      844.261
  324      316.448      844.271
  325      316.913      844.485
  326      317.377      844.831
  327      317.841      845.178
  328      318.305      845.427
  329      318.769       845.57
  330      319.233      845.637
  331      319.697      845.635
  332      320.161      846.085
  333      320.625      846.885
  334      321.089      847.356
  335      321.552      847.604
  336      322.016      847.723
  337      322.479      847.617
  338      322.943      847.386
  339      323.406      847.259
  340      323.869      847.119
  341      324.333      847.056
  342      324.796      847.083
  343      325.259      847.064
  344      325.722      846.799
  345      326.185      846.428
  346      326.647      846.247
  347       327.11      846.191
  348      327.573      846.215
  349      328.035      846.305
  350      328.498      846.368
  351       328.96      846.345
  352      329.423      846.273
  353      329.885      846.054
  354      330.347      845.813
  355       330.81      845.691
  356      331.272      845.658
  357      331.734      845.987
  358      332.196      846.557
  359      332.657      846.957
  360      333.119      847.231
  361      333.581      847.398
  362      334.043      847.502
  363      334.504      847.543
  364      334.966      847.412
  365      335.427      847.189
  366      335.888       847.02
  367       336.35      846.854
  368      336.811       846.79
  369      337.272      846.681
  370      337.733      846.475
  371      338.194      846.366
  372      338.655      846.268
  373      339.115      846.115
  374      339.576      845.944
  375      340.037      845.879
  376      340.497      845.875
  377      340.958      845.892
  378      341.418      845.882
  379      341.879      845.818
  380      342.339      845.723
  381      342.799      845.684
  382      343.259      845.809
  383      343.719      845.926
  384      344.179      845.716
  385      344.639      845.394
  386      345.099      845.322
  387      345.559      845.413
  388      346.018      845.049
  389      346.478      844.584
  390      346.937      844.499
  391      347.397      844.367
  392      347.856       844.28
  393      348.315      844.167
  394      348.774      844.052
  395      349.234      843.974
  396      349.693      843.967
  397      350.152      844.216
  398       350.61      844.408
  399      351.069      844.362
  400      351.528      844.364
  401      351.987      844.325
  402      352.445      844.198
  403      352.904      844.078
  404      353.362      844.009
  405       353.82      843.917
  406      354.279       843.77
  407      354.737      843.655
  408      355.195      843.653
  409      355.653      843.698
  410      356.111      843.807
  411      356.569       843.98
  412      357.027      844.096
  413      357.484      844.108
  414      357.942      844.094
  415      358.399      843.894
  416      358.857      843.563
  417      359.314       843.37
  418      359.772      843.285
  419      360.229      843.072
  420      360.686      842.722
  421      361.143      842.617
  422        361.6      842.729
  423      362.057      842.956
  424      362.514      843.178
  425      362.971      843.191
  426      363.427      842.954
  427      363.884       842.59
  428       364.34      842.216
  429      364.797      841.934
  430      365.253      841.764
  431      365.709        841.6
  432      366.166      841.474
  433      366.622      840.941
  434      367.078      840.203
  435      367.534      839.832
  436       367.99      839.545
  437      368.445      839.361
  438      368.901      839.312
  439      369.357      839.314
  440      369.812      839.321
  441      370.268      839.364
  442      370.723      839.417
  443      371.179       839.56
  444      371.634      839.721
  445      372.089      839.791
  446      372.544      839.819
  447      372.999      839.853
  448      373.454      839.829
  449      373.909      839.735
  450      374.364      839.562
  451      374.818      839.288
  452      375.273      839.146
  453      375.727      839.159
  454      376.182      839.219
  455      376.636        839.3
  456       377.09      839.425
  457      377.545      839.561
  458      377.999      839.412
  459      378.453      839.079
  460      378.907      838.883
  461      379.361      838.802
  462      379.814      838.774
  463      380.268      838.748
  464      380.722      838.838
  465      381.175      838.993
  466      381.629      839.104
  467      382.082      839.237
  468      382.535      839.388
  469      382.989      839.418
  470      383.442      839.403
  471      383.895      839.415
  472      384.348      839.456
  473      384.801       839.49
  474      385.253      839.488
  475      385.706      839.466
  476      386.159      839.467
  477      386.611      839.508
  478      387.064      839.728
  479      387.516       840.15
  480      387.968      840.486
  481      388.421      840.721
  482      388.873      840.813
  483      389.325      840.921
  484      389.777      841.146
  485      390.229       841.41
  486      390.681      842.129
  487      391.132      842.955
  488      391.584      843.322
  489      392.035      843.579
  490      392.487      843.611
  491      392.938      843.527
  492       393.39      843.606
  493      393.841      843.768
  494      394.292       844.14
  495      394.743      844.652
  496      395.194      845.021
  497      395.645      845.172
  498      396.096      845.039
  499      396.546      844.879
  500      396.997      844.814
  501      397.448       844.83
  502      397.898       844.98
  503      398.349      845.162
  504      398.799      845.369
  505      399.249      845.633
  506      399.699       845.92
  507      400.149      846.133
  508      400.599      846.314
  509      401.049      846.437
  510      401.499      846.646
  511      401.949      846.837
  512      402.398      846.877
  513      402.848      846.885
  514      403.297      846.773
  515      403.747       846.61
  516      404.196      846.533
  517      404.645      846.519
  518      405.094      846.537
  519      405.543      846.555
  520      405.992      846.639
  521      406.441       846.75
  522       406.89      846.685
  523      407.339       846.72
  524      407.787      846.937
  525      408.236      847.027
  526      408.684      847.369
  527      409.132      847.965
  528      409.581      848.333
  529      410.029      848.512
  530      410.477      848.602
  531      410.925      848.637
  532      411.373      848.695
  533      411.821      848.904
  534      412.269       849.15
  535      412.716      849.183
  536      413.164      849.146
  537      413.611      849.215
  538      414.059      849.284
  539      414.506      849.327
  540      414.953      849.409
  541        415.4      849.468
  542      415.847      849.477
  543      416.294      849.465
  544      416.741      849.383
  545      417.188      849.269
  546      417.635      849.181
  547      418.081      849.134
  548      418.528      849.122
  549      418.974      849.166
  550      419.421      849.222
  551      419.867      849.281
  552      420.313      849.439
  553      420.759      849.601
  554      421.205      849.739
  555      421.651      849.928
  556      422.097      850.066
  557      422.543      850.067
  558      422.989      850.017
  559      423.434      849.936
  560       423.88      849.783
  561      424.325      849.674
  562       424.77      849.602
  563      425.216      849.597
  564      425.661      849.643
  565      426.106      849.637
  566      426.551      849.661
  567      426.996      849.814
  568       427.44      850.028
  569      427.885      850.201
  570       428.33      850.467
  571      428.774      850.747
  572      429.219      850.918
  573      429.663      851.046
  574      430.107      851.177
  575      430.551       851.32
  576      430.996      851.463
  577       431.44      851.528
  578      431.883      851.531
  579      432.327      851.377
  580      432.771      851.043
  581      433.215      850.718
  582      433.658       850.45
  583      434.102      850.292
  584      434.545      849.997
  585      434.988      849.653
  586      435.431      849.306
  587      435.875      848.417
  588      436.318      847.375
  589      436.761      846.731
  590      437.203      846.315
  591      437.646      846.054
  592      438.089      845.842
  593      438.531      845.631
  594      438.974      845.421
  595      439.416      845.191
  596      439.859      845.001
  597      440.301      844.908
  598      440.743      844.863
  599      441.185      844.891
  600      441.627      844.905
  601      442.069       844.94
  602       442.51      844.996
  603      442.952      844.987
  604      443.394       844.99
  605      443.835      844.942
  606      444.277      844.844
  607      444.718      844.746
  608      445.159       844.68
  609        445.6       844.75
  610      446.041      844.928
  611      446.482      844.965
  612      446.923      844.987
  613      447.364      845.106
  614      447.804      845.183
  615      448.245      845.416
  616      448.685       845.78
  617      449.126      846.131
  618      449.566       846.51
  619      450.006      846.783
  620      450.447      846.946
  621      450.887      847.004
  622      451.326      847.169
  623      451.766      847.448
  624      452.206      847.377
  625      452.646      847.143
  626      453.085      847.079
  627      453.525      846.752
  628      453.964      846.199
  629      454.403      846.012
  630      454.843      846.163
  631      455.282       846.35
  632      455.721      846.576
  633       456.16      846.788
  634      456.599      846.751
  635      457.037      846.618
  636      457.476      846.852
  637      457.915      847.298
  638      458.353      847.586
  639      458.791      847.775
  640       459.23      847.864
  641      459.668      847.836
  642      460.106      847.776
  643      460.544      847.725
  644      460.982      847.653
  645       461.42      847.548
  646      461.857      847.499
  647      462.295      847.548
  648      462.733      847.617
  649       463.17      847.622
  650      463.607      847.614
  651      464.045      847.631
  652      464.482      847.643
  653      464.919      847.754
  654      465.356      847.982
  655      465.793      848.168
  656       466.23      848.258
  657      466.666      848.493
  658      467.103       848.94
  659      467.539      849.322
  660      467.976      849.573
  661      468.412      849.743
  662      468.848      849.851
  663      469.284      849.915
  664       469.72      849.956
  665      470.156      849.962
  666      470.592      849.979
  667      471.028      849.982
  668      471.464      849.879
  669      471.899      849.639
  670      472.335      849.558
  671       472.77        849.5
  672      473.205       849.31
  673      473.641      849.309
  674      474.076       849.44
  675      474.511      849.543
  676      474.946      849.578
  677       475.38      849.636
  678      475.815      849.887
  679       476.25      850.163
  680      476.684      850.347
  681      477.119      850.562
  682      477.553      850.863
  683      477.987      851.185
  684      478.421      851.496
  685      478.856      851.752
  686      479.289      851.916
  687      479.723      852.069
  688      480.157      852.317
  689      480.591      852.534
  690      481.024       852.71
  691      481.458      852.962
  692      481.891      853.225
  693      482.324      853.393
  694      482.758      853.563
  695      483.191       853.76
  696      483.624      853.774
  697      484.057       853.61
  698      484.489      853.482
  699      484.922      853.495
  700      485.355      853.535
  701      485.787      853.625
  702       486.22      853.797
  703      486.652      853.898
  704      487.084      853.975
  705      487.516      854.078
  706      487.948      854.281
  707       488.38       854.46
  708      488.812      854.585
  709      489.244      854.779
  710      489.676      854.868
  711      490.107       854.83
  712      490.539      854.835
  713       490.97      854.804
  714      491.401      854.861
  715      491.832      855.037
  716      492.263      855.002
  717      492.694      855.034
  718      493.125      855.175
  719      493.556      855.103
  720      493.987      855.196
  721      494.417      855.495
  722      494.848      856.023
  723      495.278      856.516
  724      495.708        856.7
  725      496.139      856.864
  726      496.569      857.021
  727      496.999      857.204
  728      497.429      857.422
  729      497.858      857.667
  730      498.288      857.853
  731      498.718      858.038
  732      499.147      858.289
  733      499.577        858.5
  734      500.006      858.708
  735      500.435      858.929
  736      500.864       859.15
  737      501.293      859.086
  738      501.722      858.944
  739      502.151      859.071
  740       502.58      859.249
  741      503.008        859.5
  742      503.437      859.798
  743      503.865      860.309
  744      504.293      861.009
  745      504.722      861.586
  746       505.15      862.136
  747      505.578      862.833
  748      506.006      863.876
  749      506.434      865.019
  750      506.861      865.892
  751      507.289       866.55
  752      507.716      867.019
  753      508.144      867.393
  754      508.571      867.626
  755      508.998      867.729
  756      509.425      867.878
  757      509.852      868.182
  758      510.279      868.423
  759      510.706      868.487
  760      511.133       868.61
  761       511.56      868.848
  762      511.986      869.154
  763      512.412      869.519
  764      512.839      869.913
  765      513.265      870.338
  766      513.691      870.924
  767      514.117      871.591
  768      514.543      872.275
  769      514.969      873.139
  770      515.395      874.055
  771       515.82       874.77
  772      516.246      875.407
  773      516.671      876.147
  774      517.096      876.827
  775      517.522      877.394
  776      517.947      878.025
  777      518.372      878.748
  778      518.797      879.434
  779      519.222       880.01
  780      519.646      880.672
  781      520.071      881.463
  782      520.495      882.297
  783       520.92      883.203
  784      521.344      884.138
  785      521.768      885.176
  786      522.192      886.385
  787      522.616      887.804
  788       523.04      889.343
  789      523.464      890.793
  790      523.888      892.287
  791      524.311      893.879
  792      524.735      895.481
  793      525.158      897.081
  794      525.581      898.774
  795      526.005       900.56
  796      526.428       902.55
  797      526.851      904.867
  798      527.274      907.331
  799      527.696      909.828
  800      528.119      912.364
  801      528.542      915.023
  802      528.964      917.697
  803      529.386      920.386
  804      529.809       923.29
  805      530.231      926.381
  806      530.653      929.659
  807      531.075      933.042
  808      531.497      936.767
  809      531.918      940.871
  810       532.34      945.094
  811      532.761      949.575
  812      533.183      954.443
  813      533.604      959.553
  814      534.025      965.031
  815      534.447      970.652
  816      534.868      976.228
  817      535.289      981.998
  818      535.709      987.826
  819       536.13      993.946
  820      536.551      1000.59
  821      536.971       1007.5
  822      537.392      1014.66
  823      537.812      1022.06
  824      538.232      1029.91
  825      538.652      1038.43
  826      539.072      1047.51
  827      539.492      1057.12
  828      539.912      1067.29
  829      540.331      1078.11
  830      540.751      1089.58
  831       541.17      1101.55
  832       541.59      1113.94
  833      542.009      1126.98
  834      542.428      1140.77
  835      542.847      1155.28
  836      543.266      1170.78
  837      543.685      1187.52
  838      544.104      1205.28
  839      544.522      1223.69
  840      544.941      1242.82
  841      545.359      1262.84
  842      545.778      1283.54
  843      546.196      1305.15
  844      546.614       1327.7
  845      547.032      1351.26
  846       547.45      1376.23
  847      547.867      1402.36
  848      548.285      1429.57
  849      548.703      1457.95
  850       549.12       1487.7
  851      549.538      1519.17
  852      549.955      1552.41
  853      550.372      1587.65
  854      550.789      1624.83
  855      551.206      1664.11
  856      551.623       1705.7
  857      552.039      1749.48
  858      552.456      1795.94
  859      552.873      1844.77
  860      553.289      1895.78
  861      553.705      1949.34
  862      554.121      2005.52
  863      554.537      2065.19
  864      554.953       2128.6
  865      555.369      2195.38
  866      555.785       2265.4
  867      556.201      2338.89
  868      556.616      2415.92
  869      557.032      2495.55
  870      557.447      2577.62
  871      557.862      2663.38
  872      558.277      2753.62
  873      558.692      2848.69
  874      559.107      2948.08
  875      559.522      3051.54
  876      559.937      3159.45
  877      560.351      3271.64
  878      560.766      3388.11
  879       561.18         3509
  880      561.595      3634.58
  881      562.009      3764.72
  882      562.423      3899.42
  883      562.837      4038.63
  884       563.25      4181.83
  885      563.664      4328.86
  886      564.078      4479.52
  887      564.491      4632.04
  888      564.905       4784.4
  889      565.318      4936.62
  890      565.731      5088.89
  891      566.144      5241.13
  892      566.557      5393.32
  893       566.97      5545.41
  894      567.383      5697.45
  895      567.795      5849.49
  896      568.208      6001.47
  897       568.62      6153.24
  898      569.033      6304.73
  899      569.445      6456.11
  900      569.857      6607.49
  901      570.269      6758.81
  902      570.681      6909.96
  903      571.093      7060.98
  904      571.504      7211.89
  905      571.916      7362.65
  906      572.327      7513.29
  907      572.739      7663.75
  908       573.15      7814.06
  909      573.561      7964.03
  910      573.972      8113.65
  911      574.383      8263.12
  912      574.794      8410.47
  913      575.204      8548.19
  914      575.615      8675.41
  915      576.025      8791.63
  916      576.436      8897.44
  917      576.846      8994.03
  918      577.256      9081.43
  919      577.666      9160.06
  920      578.076      9230.73
  921      578.486      9294.19
  922      578.896      9351.21
  923      579.305      9402.02
  924      579.715      9446.83
  925      580.124      9486.06
  926      580.533      9520.31
  927      580.942       9550.2
  928      581.351      9576.21
  929       581.76      9598.74
  930      582.169      9618.08
  931      582.578      9634.39
  932      582.986      9647.91
  933      583.395      9658.84
  934      583.803      9667.26
  935      584.212      9673.24
  936       584.62      9676.97
  937      585.028      9678.17
  938      585.436      9676.65
  939      585.843      9673.23
  940      586.251      9668.11
  941      586.659      9660.87
  942      587.066      9651.75
  943      587.474      9641.12
  944      587.881       9628.8
  945      588.288      9614.53
  946      588.695      9598.34
  947      589.102      9580.47
  948      589.509      9561.13
  949      589.915      9539.94
  950      590.322      9516.91
  951      590.728      9492.06
  952      591.135      9465.19
  953      591.541      9436.19
  954      591.947      9405.02
  955      592.353      9371.71
  956      592.759      9335.93
  957      593.165      9297.59
  958      593.571      9256.85
  959      593.976      9213.07
  960      594.382      9166.64
  961      594.787      9117.88
  962      595.192      9067.18
  963      595.597      9014.23
  964      596.002      8957.18
  965      596.407      8896.01
  966      596.812      8831.27
  967      597.217      8763.04
  968      597.621      8691.01
  969      598.026      8615.15
  970       598.43      8536.48
  971      598.834      8455.15
  972      599.238      8370.06
  973      599.642      8280.62
  974      600.046      8186.57
  975       600.45      8088.17
  976      600.854      7985.38
  977      601.257      7878.01
  978      601.661      7766.36
  979      602.064      7650.31
  980      602.467      7529.66
  981       602.87      7404.24
  982      603.273       7274.3
  983      603.676       7139.8
  984      604.079      7000.51
  985      604.481      6856.96
  986      604.884      6709.46
  987      605.286      6558.26
  988      605.689      6405.11
  989      606.091      6251.93
  990      606.493      6099.12
  991      606.895      5946.54
  992      607.297      5793.66
  993      607.698      5640.64
  994        608.1       5487.5
  995      608.501      5334.32
  996      608.903      5181.13
  997      609.304       5027.9
  998      609.705      4874.59
  999      610.106      4721.21
 1000      610.507      4567.78
 1001      610.908      4414.35
 1002      611.308      4260.98
 1003      611.709      4107.58
 1004      612.109      3954.06
 1005       612.51       3800.5
 1006       612.91      3646.96
 1007       613.31      3493.42
 1008       613.71      3339.91
 1009       614.11      3186.42
 1010       614.51       3032.9
 1011      614.909      2879.36
 1012      615.309      2725.76
 1013      615.708       2574.2
 1014      616.108      2432.05
 1015      616.507      2300.03
 1016      616.906      2178.62
 1017      617.305      2067.35
 1018      617.704      1965.21
 1019      618.102      1872.11
 1020      618.501      1787.47
 1021      618.899      1710.37
 1022      619.298      1640.15
 1023      619.696      1576.02
 1024      620.094      1517.82
 1025      620.492      1465.25
 1026       620.89       1417.7
 1027      621.288      1374.59
 1028      621.686      1335.45
 1029      622.083      1299.71
 1030       622.48      1266.89
 1031      622.878      1236.69
 1032      623.275      1208.94
 1033      623.672      1183.47
 1034      624.069      1160.02
 1035      624.466      1138.37
 1036      624.863      1118.42
 1037      625.259      1100.01
 1038      625.656      1083.15
 1039      626.052      1067.82
 1040      626.448      1053.43
 1041      626.844      1039.96
 1042      627.241      1027.81
 1043      627.636       1016.7
 1044      628.032       1006.4
 1045      628.428      996.848
 1046      628.823      988.344
 1047      629.219      980.758
 1048      629.614      973.392
 1049      630.009      966.286
 1050      630.404      959.762
 1051      630.799      953.457
 1052      631.194      947.934
 1053      631.589      943.364
 1054      631.984      938.942
 1055      632.378      934.693
 1056      632.772      930.748
 1057      633.167      927.173
 1058      633.561      923.697
 1059      633.955      920.379
 1060      634.349      917.301
 1061      634.743      914.427
 1062      635.136      911.718
 1063       635.53      908.414
 1064      635.923      904.857
 1065      636.316      902.054
 1066       636.71      899.522
 1067      637.103       897.16
 1068      637.496      894.979
 1069      637.888      893.006
 1070      638.281      891.277
 1071      638.674      889.696
 1072      639.066      888.183
 1073      639.459      886.643
 1074      639.851      885.031
 1075      640.243      883.178
 1076      640.635      881.312
 1077      641.027      879.739
 1078      641.419      878.367
 1079       641.81       877.05
 1080      642.202      875.807
 1081      642.593      874.681
 1082      642.984      873.789
 1083      643.375      872.848
 1084      643.766      871.733
 1085      644.157       870.76
 1086      644.548      869.894
 1087      644.939       869.11
 1088      645.329      868.365
 1089       645.72      867.651
 1090       646.11      866.968
 1091        646.5      865.862
 1092       646.89       864.56
 1093       647.28      863.604
 1094       647.67      862.764
 1095       648.06       862.04
 1096      648.449      861.346
 1097      648.839      860.662
 1098      649.228      860.015
 1099      649.617      859.404
 1100      650.007      858.843
 1101      650.396      858.354
 1102      650.784      857.882
 1103      651.173      857.313
 1104      651.562      856.842
 1105       651.95      856.624
 1106      652.339      856.483
 1107      652.727      856.267
 1108      653.115      855.934
 1109      653.503      855.491
 1110      653.891      855.003
 1111      654.279      854.552
 1112      654.666      854.175
 1113      655.054      854.047
 1114      655.441      853.923
 1115      655.828       853.52
 1116      656.216      853.146
 1117      656.603      852.779
 1118      656.989      852.401
 1119      657.376      852.055
 1120      657.763      851.685
 1121      658.149      851.387
 1122      658.536       851.17
 1123      658.922       850.93
 1124      659.308      850.709
 1125      659.694      850.449
 1126       660.08      850.104
 1127      660.466      849.825
 1128      660.852      849.601
 1129      661.237      849.377
 1130      661.623      849.357
 1131      662.008      849.425
 1132      662.393      849.325
 1133      662.778      849.103
 1134      663.163      848.796
 1135      663.548      848.492
 1136      663.933      848.206
 1137      664.317      848.095
 1138      664.702      848.164
 1139      665.086      848.149
 1140       665.47      848.527
 1141      665.854      849.214
 1142      666.238      849.518
 1143      666.622      849.555
 1144      667.006      849.583
 1145      667.389      849.647
 1146      667.773      849.745
 1147      668.156      849.596
 1148      668.539      849.132
 1149      668.923       848.77
 1150      669.305      848.617
 1151      669.688      848.609
 1152      670.071      848.588
 1153      670.454      848.034
 1154      670.836      847.123
 1155      671.218      846.555
 1156      671.601      846.151
 1157      671.983      845.712
 1158      672.365      846.077
 1159      672.747      847.183
 1160      673.128      847.779
 1161       673.51      848.077
 1162      673.891      848.221
 1163      674.273       848.36
 1164      674.654      848.666
 1165      675.035      848.816
 1166      675.416       848.69
 1167      675.797      848.592
 1168      676.177       848.66
 1169      676.558      848.856
 1170      676.938      848.897
 1171      677.319      848.846
 1172      677.699      848.786
 1173      678.079      848.681
 1174      678.459      848.544
 1175      678.839      848.405
 1176      679.219      848.282
 1177      679.598       848.18
 1178      679.978       848.05
 1179      680.357      847.882
 1180      680.736       847.95
 1181      681.115      848.535
 1182      681.494      849.215
 1183      681.873      849.396
 1184      682.252      849.266
 1185       682.63      849.145
 1186      683.009      849.034
 1187      683.387      848.916
 1188      683.765      848.787
 1189      684.143       848.66
 1190      684.521      848.538
 1191      684.899      848.415
 1192      685.277       848.32
 1193      685.654      848.125
 1194      686.032      847.817
 1195      686.409      847.656
 1196      686.786      847.616
 1197      687.163      847.483
 1198       687.54      847.247
 1199      687.917      846.968
 1200      688.294      846.739
 1201       688.67      846.516
 1202      689.046      846.255
 1203      689.423      846.086
 1204      689.799      846.046
 1205      690.175        845.9
 1206      690.551      845.571
 1207      690.927      845.141
 1208      691.302      844.756
 1209      691.678      844.513
 1210      692.053      844.346
 1211      692.428      844.235
 1212      692.804      844.206
 1213      693.179      844.172
 1214      693.553      843.856
 1215      693.928      843.346
 1216      694.303      842.979
 1217      694.677      842.648
 1218      695.052      842.341
 1219      695.426       842.24
 1220        695.8       842.29
 1221      696.174      842.236
 1222      696.548      842.182
 1223      696.921      842.119
 1224      697.295      842.138
 1225      697.669      842.225
 1226      698.042      842.138
 1227      698.415      842.115
 1228      698.788      842.274
 1229      699.161      842.456
 1230      699.534      842.463
 1231      699.907      842.104
 1232      700.279      841.642
 1233      700.652      841.339
 1234      701.024      841.096
 1235      701.396      840.888
 1236      701.768      840.679
 1237       702.14      840.489
 1238      702.512      840.145
 1239      702.883      839.675
 1240      703.255      839.356
 1241      703.626      838.586
 1242      703.998      837.496
 1243      704.369      836.902
 1244       704.74      836.647
 1245      705.111      836.655
 1246      705.481      836.747
 1247      705.852      836.658
 1248      706.222      836.503
 1249      706.593      836.387
 1250      706.963       836.24
 1251      707.333      835.935
 1252      707.703      835.528
 1253      708.073       835.23
 1254      708.442      836.536
 1255      708.812       838.92
 1256      709.181      840.254
 1257      709.551      840.997
 1258       709.92      841.369
 1259      710.289      840.682
 1260      710.658       839.25
 1261      711.027      838.331
 1262      711.395      837.824
 1263      711.764      837.635
 1264      712.132      837.452
 1265        712.5      837.026
 1266      712.869      836.548
 1267      713.236      836.156
 1268      713.604      835.775
 1269      713.972      835.313
 1270       714.34      834.843
 1271      714.707      834.427
 1272      715.074      834.021
 1273      715.442      833.661
 1274      715.809      833.334
 1275      716.176       833.14
 1276      716.542      833.025
 1277      716.909      832.893
 1278      717.276      832.729
 1279      717.642      832.543
 1280      718.008      832.347
 1281      718.374      831.956
 1282       718.74      831.169
 1283      719.106      830.418
 1284      719.472       830.03
 1285      719.838      829.793
 1286      720.203      829.641
 1287      720.568      829.532
 1288      720.934      829.424
 1289      721.299      829.317
 1290      721.664      829.149
 1291      722.029      828.921
 1292      722.393      828.721
 1293      722.758       828.64
 1294      723.122       828.74
 1295      723.486      828.904
 1296      723.851      828.984
 1297      724.215      828.936
 1298      724.578       828.96
 1299      724.942      829.078
 1300      725.306      829.183
 1301      725.669        829.2
 1302      726.033      829.191
 1303      726.396      829.193
 1304      726.759      829.045
 1305      727.122      828.791
 1306      727.485      828.562
 1307      727.847      828.373
 1308       728.21      828.341
 1309      728.572      828.338
 1310      728.935      828.215
 1311      729.297      828.048
 1312      729.659      827.867
 1313      730.021      827.579
 1314      730.382      827.249
 1315      730.744      826.995
 1316      731.105      826.866
 1317      731.467      826.836
 1318      731.828      827.391
 1319      732.189      828.284
 1320       732.55      828.594
 1321      732.911      828.599
 1322      733.271      828.656
 1323      733.632      828.717
 1324      733.992      828.767
 1325      734.352      828.693
 1326      734.713      828.459
 1327      735.072      828.366
 1328      735.432      828.194
 1329      735.792      827.812
 1330      736.152      827.437
 1331      736.511      827.183
 1332       736.87      827.008
 1333      737.229      826.826
 1334      737.589      826.648
 1335      737.947      826.497
 1336      738.306       826.36
 1337      738.665      826.332
 1338      739.023       826.43
 1339      739.382      826.543
 1340       739.74      826.667
 1341      740.098      826.763
 1342      740.456      826.797
 1343      740.814      826.774
 1344      741.171      826.612
 1345      741.529      826.295
 1346      741.886      825.849
 1347      742.244      825.646
 1348      742.601      825.674
 1349      742.958      825.618
 1350      743.314      825.574
 1351      743.671      825.522
 1352      744.028       825.48
 1353      744.384      825.416
 1354       744.74      825.263
 1355      745.097      823.553
 1356      745.453      820.876
 1357      745.809       819.28
 1358      746.164      818.261
 1359       746.52      817.647
 1360      746.875      817.288
 1361      747.231      817.049
 1362      747.586      816.836
 1363      747.941      816.569
 1364      748.296      816.201
 1365      748.651       815.82
 1366      749.005       815.51
 1367       749.36      815.293
 1368      749.714      815.163
 1369      750.069      815.046
 1370      750.423       814.85
 1371      750.777      814.588
 1372       751.13      814.425
 1373      751.484      814.348
 1374      751.838      814.293
 1375      752.191      814.309
 1376      752.544      814.265
 1377      752.897      814.175
 1378       753.25      814.153
 1379      753.603       814.14
 1380      753.956      814.154
 1381      754.309      814.195
 1382      754.661      814.133
 1383      755.013      813.926
 1384      755.365      813.596
 1385      755.717      813.256
 1386      756.069      813.012
 1387      756.421       812.95
 1388      756.773      813.111
 1389      757.124      813.291
 1390      757.476      813.447
 1391      757.827      813.634
 1392      758.178       813.76
 1393      758.529      813.777
 1394      758.879      813.702
 1395       759.23      813.507
 1396      759.581      813.472
 1397      759.931      813.576
 1398      760.281       813.65
 1399      760.631       813.69
 1400      760.981      813.976
 1401      761.331      814.564
 1402      761.681      814.908
 1403       762.03      815.028
 1404      762.379       815.05
 1405      762.729        815.1
 1406      763.078      815.129
 1407      763.427      815.159
 1408      763.776      815.227
 1409      764.124      815.188
 1410      764.473      815.095
 1411      764.821      815.104
 1412      765.169      815.133
 1413      765.517      815.103
 1414      765.865      815.076
 1415      766.213      815.267
 1416      766.561      815.567
 1417      766.909      815.591
 1418      767.256      815.409
 1419      767.603      814.731
 1420       767.95      813.737
 1421      768.297      813.141
 1422      768.644      812.819
 1423      768.991      812.633
 1424      769.337      812.432
 1425      769.684      812.132
 1426       770.03      811.848
 1427      770.376      811.646
 1428      770.722      811.445
 1429      771.068      811.306
 1430      771.414      811.314
 1431      771.759       811.36
 1432      772.105      811.502
 1433       772.45      811.979
 1434      772.795      812.508
 1435       773.14      812.781
 1436      773.485      812.935
 1437       773.83      813.118
 1438      774.174       813.12
 1439      774.519      812.995
 1440      774.863      812.943
 1441      775.207      812.813
 1442      775.551      812.595
 1443      775.895      812.402
 1444      776.239      812.276
 1445      776.582      812.221
 1446      776.926      812.253
 1447      777.269       812.16
 1448      777.612      811.806
 1449      777.955      811.545
 1450      778.298      811.401
 1451      778.641      811.323
 1452      778.983      811.401
 1453      779.326      811.464
 1454      779.668       811.56
 1455       780.01      811.724
 1456      780.352      811.833
 1457      780.694      811.853
 1458      781.036      811.831
 1459      781.377      811.845
 1460      781.719      811.835
 1461       782.06      811.747
 1462      782.401      811.815
 1463      782.742      812.007
 1464      783.083      812.067
 1465      783.424      812.127
 1466      783.764      812.304
 1467      784.105       812.49
 1468      784.445      812.587
 1469      784.785      812.722
 1470      785.125      812.943
 1471      785.465       813.11
 1472      785.805      813.296
 1473      786.144      813.472
 1474      786.484      813.518
 1475      786.823      813.478
 1476      787.162       813.41
 1477      787.501       813.42
 1478       787.84      813.499
 1479      788.178      813.628
 1480      788.517      813.968
 1481      788.855      814.364
 1482      789.194      814.549
 1483      789.532      814.708
 1484       789.87      814.836
 1485      790.208      815.208
 1486      790.545      815.738
 1487      790.883      816.011
 1488       791.22      815.997
 1489      791.557      815.674
 1490      791.894      815.459
 1491      792.231      815.381
 1492      792.568      815.265
 1493      792.905      815.431
 1494      793.241       815.74
 1495      793.578      815.841
 1496      793.914      815.824
 1497       794.25       815.58
 1498      794.586      815.149
 1499      794.922      814.799
 1500      795.257      814.537
 1501      795.593      813.995
 1502      795.928      813.174
 1503      796.263      812.664
 1504      796.598      812.482
 1505      796.933      812.424
 1506      797.268      812.347
 1507      797.603       812.27
 1508      797.937      812.166
 1509      798.271      812.045
 1510      798.606      812.226
 1511       798.94      812.643
 1512      799.274      812.978
 1513      799.607      813.386
 1514      799.941      813.897
 1515      800.274      814.277
 1516      800.608      814.271
 1517      800.941       814.16
 1518      801.274      814.221
 1519      801.607      814.365
 1520      801.939      814.457
 1521      802.272      814.448
 1522      802.604      814.421
 1523      802.936      814.312
 1524      803.269      814.146
 1525      803.601      814.047
 1526      803.932      814.051
 1527      804.264      814.099
 1528      804.596      814.217
 1529      804.927       814.46
 1530      805.258      814.698
 1531      805.589      814.923
 1532       805.92      815.218
 1533      806.251      815.231
 1534      806.582      814.933
 1535      806.912      814.644
 1536      807.242      814.489
 1537      807.573      814.652
 1538      807.903      814.934
 1539      808.232      815.027
 1540      808.562      814.977
 1541      808.892      814.795
 1542      809.221      814.765
 1543      809.551      814.926
 1544       809.88       815.03
 1545      810.209      815.089
 1546      810.538      815.286
 1547      810.866      815.477
 1548      811.195      815.625
 1549      811.523        815.7
 1550      811.851      815.747
 1551       812.18      816.175
 1552      812.507      816.749
 1553      812.835      817.099
 1554      813.163      817.285
 1555       813.49      817.311
 1556      813.818      817.193
 1557      814.145      817.145
 1558      814.472        817.2
 1559      814.799      817.273
 1560      815.126      817.342
 1561      815.452      817.368
 1562      815.779      817.438
 1563      816.105      817.368
 1564      816.431      817.177
 1565      816.757      817.124
 1566      817.083      817.168
 1567      817.409      817.201
 1568      817.734      817.134
 1569       818.06      817.036
 1570      818.385      816.894
 1571       818.71      816.748
 1572      819.035      816.616
 1573       819.36      816.415
 1574      819.685      816.204
 1575      820.009      816.087
 1576      820.333      816.046
 1577      820.658      815.963
 1578      820.982      815.818
 1579      821.305      816.477
 1580      821.629      817.617
 1581      821.953       817.98
 1582      822.276      817.935
 1583        822.6      817.911
 1584      822.923       817.92
 1585      823.246      817.934
 1586      823.569      817.822
 1587      823.891      817.599
 1588      824.214      817.468
 1589      824.536       817.45
 1590      824.858      817.499
 1591       825.18      817.377
 1592      825.502      817.301
 1593      825.824      817.614
 1594      826.146      817.794
 1595      826.467      817.694
 1596      826.789        817.6
 1597       827.11      817.525
 1598      827.431      817.458
 1599      827.752       817.71
 1600      828.072      818.151
 1601      828.393      818.354
 1602      828.713      818.474
 1603      829.034      818.562
 1604      829.354      818.667
 1605      829.674      818.795
 1606      829.993       818.93
 1607      830.313      819.249
 1608      830.633      819.692
 1609      830.952      819.973
 1610      831.271       820.17
 1611       831.59      819.989
 1612      831.909      819.628
 1613      832.228      819.354
 1614      832.546       818.91
 1615      832.865      818.366
 1616      833.183      817.977
 1617      833.501      817.742
 1618      833.819      817.433
 1619      834.137      817.121
 1620      834.455      816.843
 1621      834.772      816.582
 1622      835.089      816.411
 1623      835.407      816.256
 1624      835.724      816.139
 1625       836.04      816.079
 1626      836.357      816.112
 1627      836.674      816.266
 1628       836.99      816.402
 1629      837.306      816.455
 1630      837.623      816.285
 1631      837.939      816.011
 1632      838.254       815.61
 1633       838.57      815.091
 1634      838.886      814.798
 1635      839.201      814.532
 1636      839.516      814.181
 1637      839.831      813.953
 1638      840.146      813.539
 1639      840.461      812.978
 1640      840.775       812.68
 1641       841.09      812.485
 1642      841.404      812.468
 1643      841.718       812.44
 1644      842.032      812.208
 1645      842.346      812.154
 1646      842.659       812.19
 1647      842.973      811.977
 1648      843.286      811.719
 1649      843.599      811.544
 1650      843.912       811.41
 1651      844.225      811.098
 1652      844.538      810.416
 1653      844.851      809.875
 1654      845.163      809.682
 1655      845.475      809.513
 1656      845.787       809.65
 1657      846.099       810.05
 1658      846.411      810.238
 1659      846.723       810.25
 1660      847.034      810.229
 1661      847.345       810.33
 1662      847.657      810.567
 1663      847.968      810.651
 1664      848.278       810.64
 1665      848.589      810.631
 1666        848.9      810.536
 1667       849.21      810.235
 1668       849.52      809.867
 1669       849.83      809.652
 1670       850.14      809.757
 1671       850.45      810.017
 1672      850.759      810.105
 1673      851.069      810.182
 1674      851.378      810.278
 1675      851.687      810.622
 1676      851.996      811.116
 1677      852.305      811.372
 1678      852.614      811.477
 1679      852.922      811.575
 1680       853.23      810.855
 1681      853.539      809.513
 1682      853.847      808.737
 1683      854.154      808.307
 1684      854.462      807.984
 1685       854.77      807.662
 1686      855.077       807.41
 1687      855.384      807.089
 1688      855.691      806.761
 1689      855.998      806.547
 1690      856.305      806.311
 1691      856.612      806.084
 1692      856.918      805.955
 1693      857.224      805.736
 1694       857.53      805.185
 1695      857.836      804.542
 1696      858.142      804.074
 1697      858.448      803.822
 1698      858.753      803.732
 1699      859.059      803.667
 1700      859.364       803.28
 1701      859.669      802.718
 1702      859.974      802.366
 1703      860.278      802.069
 1704      860.583      801.825
 1705      860.887      801.621
 1706      861.192       801.35
 1707      861.496      801.078
 1708        861.8      800.693
 1709      862.103      800.192
 1710      862.407      799.899
 1711       862.71      799.683
 1712      863.014      799.547
 1713      863.317      799.396
 1714       863.62      799.219
 1715      863.922        799.2
 1716      864.225      799.251
 1717      864.527      799.184
 1718       864.83      799.105
 1719      865.132      799.073
 1720      865.434      799.023
 1721      865.736      798.999
 1722      866.037          799
 1723      866.339      798.952
 1724       866.64      798.941
 1725      866.941      798.975
 1726      867.242      799.007
 1727      867.543      798.842
 1728      867.844      798.467
 1729      868.145      798.082
 1730      868.445      797.928
 1731      868.745      798.039
 1732      869.045      798.093
 1733      869.345      798.335
 1734      869.645      798.723
 1735      869.944      798.886
 1736      870.244      798.951
 1737      870.543      799.062
 1738      870.842      799.167
 1739      871.141      799.233
 1740       871.44      799.264
 1741      871.739      799.308
 1742      872.037      799.436
 1743      872.335      799.482
 1744      872.634      799.699
 1745      872.931      800.215
 1746      873.229      800.414
 1747      873.527      800.348
 1748      873.824       800.63
 1749      874.122      801.128
 1750      874.419      801.395
 1751      874.716      801.731
 1752      875.013       802.15
 1753      875.309      802.357
 1754      875.606      802.345
 1755      875.902      802.566
 1756      876.199      803.053
 1757      876.495      803.131
 1758       876.79      802.944
 1759      877.086      802.777
 1760      877.382      802.671
 1761      877.677      802.646
 1762      877.972       802.51
 1763      878.267      802.236
 1764      878.562      802.226
 1765      878.857      802.432
 1766      879.152      802.534
 1767      879.446      802.677
 1768       879.74      802.893
 1769      880.034      802.985
 1770      880.328       802.97
 1771      880.622       802.72
 1772      880.916      802.266
 1773      881.209      801.921
 1774      881.502      801.664
 1775      881.795      801.587
 1776      882.088      801.349
 1777      882.381      800.907
 1778      882.674      800.645
 1779      882.966      800.574
 1780      883.258      800.561
 1781      883.551      800.444
 1782      883.843      800.361
 1783      884.134      800.288
 1784      884.426      800.192
 1785      884.717      800.112
 1786      885.009      800.039
 1787        885.3      800.031
 1788      885.591      800.024
 1789      885.882      799.917
 1790      886.172      799.813
 1791      886.463      799.826
 1792      886.753      799.948
 1793      887.043      800.144
 1794      887.333      800.299
 1795      887.623      800.297
 1796      887.913      800.237
 1797      888.202      800.186
 1798      888.492      800.288
 1799      888.781      800.528
 1800       889.07      800.707
 1801      889.359      800.796
 1802      889.647      800.834
 1803      889.936      800.855
 1804      890.224      800.916
 1805      890.512      801.056
 1806        890.8      801.225
 1807      891.088       801.35
 1808      891.376      801.538
 1809      891.663      801.781
 1810      891.951      801.942
 1811      892.238      801.991
 1812      892.525      802.319
 1813      892.812      802.846
 1814      893.099      803.067
 1815      893.385      803.124
 1816      893.671      803.071
 1817      893.958      803.018
 1818      894.244      803.087
 1819       894.53      803.454
 1820      894.815      803.973
 1821      895.101      804.263
 1822      895.386      804.388
 1823      895.671      804.447
 1824      895.956      804.493
 1825      896.241      804.483
 1826      896.526      804.481
 1827       896.81      804.457
 1828      897.095      804.382
 1829      897.379      804.307
 1830      897.663      804.271
 1831      897.947      804.073
 1832      898.231      803.763
 1833      898.514      803.614
 1834      898.798      803.258
 1835      899.081      802.754
 1836      899.364      802.493
 1837      899.647      802.297
 1838      899.929      802.075
 1839      900.212      801.835
 1840      900.494      801.585
 1841      900.776      801.365
 1842      901.058      801.156
 1843       901.34       801.04
 1844      901.622      801.018
 1845      901.904      800.928
 1846      902.185      800.719
 1847      902.466      800.522
 1848      902.747      800.417
 1849      903.028      800.009
 1850      903.309      799.373
 1851      903.589      798.956
 1852       903.87      798.508
 1853       904.15      798.031
 1854       904.43      797.759
 1855       904.71      797.435
 1856      904.989      796.712
 1857      905.269      795.957
 1858      905.548      795.493
 1859      905.827      795.121
 1860      906.106      794.942
 1861      906.385      794.798
 1862      906.664      794.584
 1863      906.942      794.383
 1864      907.221      794.244
 1865      907.499      793.995
 1866      907.777      793.659
 1867      908.055      793.469
 1868      908.332      793.273
 1869       908.61      793.092
 1870      908.887       793.01
 1871      909.164      792.958
 1872      909.441      792.942
 1873      909.718       793.02
 1874      909.995      793.158
 1875      910.271      793.326
 1876      910.548      793.334
 1877      910.824      793.216
 1878        911.1      793.211
 1879      911.375      793.274
 1880      911.651      793.242
 1881      911.927      793.102
 1882      912.202      793.011
 1883      912.477       792.94
 1884      912.752      792.861
 1885      913.027      792.836
 1886      913.301      792.915
 1887      913.576      793.016
 1888       913.85      793.079
 1889      914.124      793.207
 1890      914.398      793.357
 1891      914.672      793.433
 1892      914.945      793.458
 1893      915.219      793.426
 1894      915.492       793.27
 1895      915.765      793.097
 1896      916.038      793.058
 1897      916.311      793.321
 1898      916.583      793.752
 1899      916.856      793.819
 1900      917.128      793.608
 1901        917.4       793.42
 1902      917.672      793.316
 1903      917.944      793.362
 1904      918.215      793.731
 1905      918.486      794.118
 1906      918.758      794.214
 1907      919.029      794.108
 1908      919.299      793.952
 1909       919.57      793.721
 1910      919.841      793.444
 1911      920.111      793.359
 1912      920.381      793.397
 1913      920.651      793.026
 1914      920.921      792.391
 1915      921.191      792.042
 1916       921.46      791.882
 1917      921.729      791.809
 1918      921.999      791.692
 1919      922.268      791.608
 1920      922.536      791.321
 1921      922.805      790.856
 1922      923.073      790.586
 1923      923.342      790.486
 1924       923.61      790.467
 1925      923.878       790.47
 1926      924.145      790.511
 1927      924.413      790.449
 1928       924.68      790.355
 1929      924.948      790.471
 1930      925.215      790.744
 1931      925.482      790.957
 1932      925.748      791.063
 1933      926.015      791.084
 1934      926.281      791.042
 1935      926.547      791.044
 1936      926.813      791.084
 1937      927.079      791.148
 1938      927.345      791.289
 1939       927.61      791.448
 1940      927.876      791.588
 1941      928.141       791.67
 1942      928.406      791.692
 1943      928.671       791.67
 1944      928.935      791.668
 1945        929.2      791.853
 1946      929.464      791.912
 1947      929.728      791.662
 1948      929.992      791.517
 1949      930.256       791.44
 1950       930.52      791.425
 1951      930.783      791.479
 1952      931.046      791.548
 1953      931.309      791.553
 1954      931.572      791.622
 1955      931.835      791.752
 1956      932.097      791.832
 1957       932.36      791.886
 1958      932.622      791.864
 1959      932.884      791.757
 1960      933.146      791.652
 1961      933.408      791.536
 1962      933.669      791.422
 1963       933.93      791.345
 1964      934.192      791.243
 1965      934.453      791.195
 1966      934.713      791.342
 1967      934.974      791.517
 1968      935.234       791.57
 1969      935.495      791.564
 1970      935.755      791.513
 1971      936.015      791.475
 1972      936.274      791.455
 1973      936.534      791.428
 1974      936.793      791.378
 1975      937.053      791.283
 1976      937.312      791.129
 1977      937.571      790.986
 1978      937.829      790.867
 1979      938.088      790.755
 1980      938.346       790.73
 1981      938.604      790.749
 1982      938.862      790.745
 1983       939.12      790.752
 1984      939.378      790.839
 1985      939.635      790.929
 1986      939.893      790.959
 1987       940.15      790.951
 1988      940.407      790.953
 1989      940.663      790.913
 1990       940.92      790.768
 1991      941.176      790.711
 1992      941.433      790.782
 1993      941.689      790.795
 1994      941.944      790.754
 1995        942.2      790.719
 1996      942.456      790.656
 1997      942.711      790.544
 1998      942.966      790.343
 1999      943.221      790.003
 2000      943.476      789.847
 2001      943.731      789.787
 2002      943.985      789.795
 2003      944.239      789.829
 2004      944.493      789.702
 2005      944.747       789.24
 2006      945.001      788.777
 2007      945.255      788.563
 2008      945.508       788.49
 2009      945.761      788.498
 2010      946.014      788.489
 2011      946.267      788.424
 2012       946.52      788.259
 2013      946.772       788.08
 2014      947.025      788.038
 2015      947.277      788.083
 2016      947.529      788.151
 2017      947.781      788.209
 2018      948.032      788.247
 2019      948.284      788.318
 2020      948.535      788.312
 2021      948.786      788.222
 2022      949.037       788.21
 2023      949.288      788.279
 2024      949.538      788.308
 2025      949.789      788.318
 2026      950.039      788.369
 2027      950.289      788.404
 2028      950.539      788.473
 2029      950.788      788.554
 2030      951.038       788.45
 2031      951.287      788.208
 2032      951.536      788.071
 2033      951.785      788.075
 2034      952.034      788.146
 2035      952.282      788.246
 2036      952.531      788.332
 2037      952.779      788.386
 2038      953.027      788.356
 2039      953.275      788.218
 2040      953.523      788.101
 2041       953.77      788.052
 2042      954.017      788.142
 2043      954.264      788.327
 2044      954.511      788.541
 2045      954.758      788.516
 2046      955.005      787.919
 2047      955.251      787.166
