scansci Spectrometer Data File
--- Measurement Setting ---
Type: Sample Spectrum
Date: Fri Nov 22 17:59:04 2024
User: (Reserved by scansci)
Serial: (Reserved by scansci)
Channel: No. 11
Integration Time: 100
Average: 30
Boxcar: 50
Electrical Dark: No-corrected
Time Normalize: (Reserved by scansci)
Dual-beam: (Reserved by scansci)
Reference Ch: (Reserved by scansci)
--- Measurement Data ---
Pixel   Wavelength   Intensity
    0        162.5      822.286
    1      162.985      822.228
    2      163.469      822.175
    3      163.954      822.143
    4      164.439      822.093
    5      164.923      822.027
    6      165.408      821.967
    7      165.892      821.929
    8      166.377      821.909
    9      166.861      821.889
   10      167.345      821.854
   11       167.83      821.817
   12      168.314      821.816
   13      168.798      821.849
   14      169.282      821.903
   15      169.766      821.973
   16       170.25      822.082
   17      170.734      822.189
   18      171.218      822.259
   19      171.702      822.309
   20      172.185      822.325
   21      172.669      822.349
   22      173.153      822.387
   23      173.636      822.392
   24       174.12       822.36
   25      174.603      822.355
   26      175.087      822.408
   27       175.57      822.462
   28      176.053      822.476
   29      176.537      822.484
   30       177.02        822.5
   31      177.503      822.497
   32      177.986      822.467
   33      178.469      822.433
   34      178.952      822.425
   35      179.435      822.409
   36      179.918      822.372
   37      180.401      822.339
   38      180.884      822.319
   39      181.366      822.295
   40      181.849      822.277
   41      182.332      822.262
   42      182.814      822.238
   43      183.297      822.206
   44      183.779      822.168
   45      184.262      822.118
   46      184.744      822.075
   47      185.226      822.035
   48      185.708      821.985
   49      186.191      821.941
   50      186.673      821.925
   51      187.155      822.175
   52      187.637      822.323
   53      188.119      822.404
   54        188.6      822.455
   55      189.082      822.434
   56      189.564      822.362
   57      190.046      822.338
   58      190.527      822.356
   59      191.009      822.397
   60      191.491      822.399
   61      191.972      822.386
   62      192.454      822.408
   63      192.935      822.413
   64      193.416      822.424
   65      193.897       822.44
   66      194.379      822.421
   67       194.86      822.388
   68      195.341       822.36
   69      195.822      822.344
   70      196.303      822.353
   71      196.784      822.389
   72      197.265      822.442
   73      197.746      822.495
   74      198.226      822.532
   75      198.707      822.553
   76      199.188      822.481
   77      199.668      822.348
   78      200.149      822.324
   79      200.629        822.4
   80       201.11      822.496
   81       201.59      822.584
   82       202.07      822.675
   83       202.55      822.749
   84      203.031      822.818
   85      203.511      822.833
   86      203.991      822.806
   87      204.471      822.687
   88      204.951      822.513
   89      205.431      822.431
   90       205.91      822.427
   91       206.39      822.472
   92       206.87      822.483
   93      207.349      822.482
   94      207.829      822.504
   95      208.309      822.531
   96      208.788      822.581
   97      209.267      822.628
   98      209.747      822.651
   99      210.226      822.666
  100      210.705      822.654
  101      211.185      822.647
  102      211.664      822.663
  103      212.143      822.687
  104      212.622      822.711
  105      213.101      822.729
  106      213.579      822.747
  107      214.058      822.761
  108      214.537       822.77
  109      215.016      822.791
  110      215.494      822.826
  111      215.973      822.875
  112      216.452      822.934
  113       216.93      822.954
  114      217.408      822.933
  115      217.887      822.908
  116      218.365      822.894
  117      218.843      822.868
  118      219.321      822.823
  119      219.799      822.816
  120      220.278      822.836
  121      220.755      822.853
  122      221.233      822.867
  123      221.711      822.857
  124      222.189      822.863
  125      222.667      822.914
  126      223.144      822.941
  127      223.622      822.905
  128        224.1      822.854
  129      224.577       822.84
  130      225.055      822.857
  131      225.532      822.885
  132      226.009      822.915
  133      226.486      822.955
  134      226.964      822.994
  135      227.441      823.013
  136      227.918      823.037
  137      228.395      823.068
  138      228.872      823.104
  139      229.349      823.142
  140      229.826       823.18
  141      230.302        823.2
  142      230.779      823.219
  143      231.256      823.263
  144      231.732      823.305
  145      232.209      823.365
  146      232.685      823.445
  147      233.162      823.517
  148      233.638      823.592
  149      234.114      823.664
  150       234.59      823.713
  151      235.066      823.728
  152      235.543      823.725
  153      236.019      823.728
  154      236.495      823.735
  155       236.97       823.78
  156      237.446      823.872
  157      237.922      823.988
  158      238.398      824.085
  159      238.873      824.145
  160      239.349      824.212
  161      239.824      824.266
  162        240.3      824.267
  163      240.775      824.274
  164      241.251      824.316
  165      241.726      824.359
  166      242.201      824.412
  167      242.676      824.496
  168      243.151      824.586
  169      243.626      824.681
  170      244.101      824.765
  171      244.576      824.832
  172      245.051      824.837
  173      245.526      824.803
  174          246       824.78
  175      246.475      824.754
  176       246.95      824.732
  177      247.424      824.735
  178      247.899      824.767
  179      248.373       824.75
  180      248.847      824.659
  181      249.321      824.574
  182      249.796      824.504
  183       250.27      824.495
  184      250.744      824.551
  185      251.218       824.59
  186      251.692      824.638
  187      252.166      824.715
  188      252.639      824.779
  189      253.113      824.818
  190      253.587      824.862
  191       254.06      824.873
  192      254.534      824.859
  193      255.007      824.901
  194      255.481      824.947
  195      255.954      824.983
  196      256.427      825.044
  197      256.901      825.071
  198      257.374      825.084
  199      257.847      825.112
  200       258.32      825.166
  201      258.793       825.26
  202      259.266       825.36
  203      259.739      825.443
  204      260.211      825.516
  205      260.684      825.592
  206      261.157      825.703
  207      261.629      825.816
  208      262.102      825.908
  209      262.574      825.985
  210      263.046      826.045
  211      263.519      826.097
  212      263.991      826.135
  213      264.463      826.163
  214      264.935      826.224
  215      265.407      826.298
  216      265.879      826.357
  217      266.351      826.406
  218      266.823      826.443
  219      267.295      826.498
  220      267.766      826.564
  221      268.238      826.638
  222       268.71      826.717
  223      269.181      826.781
  224      269.653      826.836
  225      270.124      826.888
  226      270.595      826.929
  227      271.066       826.98
  228      271.538      827.036
  229      272.009        827.1
  230       272.48      827.182
  231      272.951      827.254
  232      273.422      827.305
  233      273.892      827.366
  234      274.363      827.435
  235      274.834      827.504
  236      275.305      827.589
  237      275.775      827.694
  238      276.246      827.785
  239      276.716       827.87
  240      277.186      827.945
  241      277.657      828.009
  242      278.127      828.089
  243      278.597       828.23
  244      279.067       828.38
  245      279.537      828.488
  246      280.007       828.57
  247      280.477      828.631
  248      280.947      828.694
  249      281.417      828.776
  250      281.886      828.875
  251      282.356      828.973
  252      282.825      829.091
  253      283.295      829.201
  254      283.764      829.282
  255      284.234      829.371
  256      284.703      829.424
  257      285.172      829.444
  258      285.641      829.463
  259       286.11      829.501
  260      286.579      829.546
  261      287.048      829.552
  262      287.517      829.565
  263      287.986      829.642
  264      288.454      829.731
  265      288.923      829.813
  266      289.392      829.894
  267       289.86      829.967
  268      290.329      830.045
  269      290.797      830.147
  270      291.265      830.226
  271      291.734      830.295
  272      292.202      830.379
  273       292.67      830.484
  274      293.138      830.595
  275      293.606      830.719
  276      294.074       830.87
  277      294.541      831.045
  278      295.009      831.215
  279      295.477      831.359
  280      295.944      831.504
  281      296.412      831.631
  282      296.879      831.742
  283      297.347      831.925
  284      297.814      832.102
  285      298.281      832.178
  286      298.749      832.251
  287      299.216      832.412
  288      299.683      832.599
  289       300.15      832.743
  290      300.616      832.883
  291      301.083      833.012
  292       301.55      833.144
  293      302.017      833.266
  294      302.483       833.34
  295       302.95      833.404
  296      303.416      833.459
  297      303.883      833.521
  298      304.349      833.619
  299      304.815      833.717
  300      305.281      833.833
  301      305.748      833.946
  302      306.214       834.03
  303       306.68      834.088
  304      307.146      834.169
  305      307.611      834.268
  306      308.077       834.33
  307      308.543       834.35
  308      309.008       834.38
  309      309.474      834.437
  310      309.939      834.502
  311      310.405      834.587
  312       310.87      834.713
  313      311.335      834.865
  314        311.8      835.037
  315      312.266      835.193
  316      312.731      835.303
  317      313.196      835.385
  318       313.66       835.48
  319      314.125      835.601
  320       314.59      835.721
  321      315.055      835.823
  322      315.519      835.889
  323      315.984      835.956
  324      316.448      836.046
  325      316.913      836.199
  326      317.377      836.366
  327      317.841       836.53
  328      318.305      836.671
  329      318.769      836.794
  330      319.233      836.911
  331      319.697      837.012
  332      320.161      837.186
  333      320.625      837.414
  334      321.089      837.569
  335      321.552      837.689
  336      322.016      837.799
  337      322.479       837.87
  338      322.943      837.911
  339      323.406      837.965
  340      323.869      838.007
  341      324.333      838.051
  342      324.796      838.118
  343      325.259      838.168
  344      325.722      838.144
  345      326.185      838.086
  346      326.647      838.077
  347       327.11      838.097
  348      327.573      838.112
  349      328.035      838.134
  350      328.498      838.159
  351       328.96      838.163
  352      329.423      838.175
  353      329.885      838.176
  354      330.347       838.16
  355       330.81      838.153
  356      331.272      838.146
  357      331.734      838.215
  358      332.196      838.335
  359      332.657      838.411
  360      333.119      838.458
  361      333.581      838.503
  362      334.043      838.564
  363      334.504      838.605
  364      334.966      838.592
  365      335.427      838.553
  366      335.888      838.523
  367       336.35        838.5
  368      336.811      838.505
  369      337.272        838.5
  370      337.733      838.475
  371      338.194       838.48
  372      338.655      838.481
  373      339.115       838.45
  374      339.576      838.406
  375      340.037      838.377
  376      340.497      838.354
  377      340.958      838.318
  378      341.418      838.264
  379      341.879      838.215
  380      342.339      838.174
  381      342.799       838.14
  382      343.259      838.147
  383      343.719      838.165
  384      344.179      838.122
  385      344.639      838.069
  386      345.099      838.079
  387      345.559      838.113
  388      346.018      838.045
  389      346.478      837.959
  390      346.937       837.93
  391      347.397      837.898
  392      347.856      837.882
  393      348.315      837.849
  394      348.774      837.799
  395      349.234      837.756
  396      349.693      837.717
  397      350.152       837.72
  398       350.61      837.733
  399      351.069      837.716
  400      351.528      837.709
  401      351.987      837.669
  402      352.445      837.589
  403      352.904      837.528
  404      353.362      837.492
  405       353.82      837.435
  406      354.279      837.368
  407      354.737      837.325
  408      355.195      837.309
  409      355.653      837.283
  410      356.111      837.265
  411      356.569      837.271
  412      357.027      837.258
  413      357.484      837.217
  414      357.942      837.153
  415      358.399       837.05
  416      358.857      836.942
  417      359.314      836.866
  418      359.772      836.819
  419      360.229      836.766
  420      360.686      836.689
  421      361.143      836.645
  422        361.6      836.613
  423      362.057      836.571
  424      362.514      836.543
  425      362.971       836.49
  426      363.427      836.367
  427      363.884      836.229
  428       364.34      836.081
  429      364.797      835.943
  430      365.253      835.845
  431      365.709      835.764
  432      366.166      835.683
  433      366.622      835.519
  434      367.078      835.331
  435      367.534      835.222
  436       367.99      835.141
  437      368.445      835.066
  438      368.901      835.018
  439      369.357      834.969
  440      369.812       834.94
  441      370.268      834.932
  442      370.723      834.929
  443      371.179      834.928
  444      371.634      834.937
  445      372.089      834.945
  446      372.544      834.958
  447      372.999      834.954
  448      373.454      834.925
  449      373.909      834.923
  450      374.364      834.917
  451      374.818       834.89
  452      375.273      834.883
  453      375.727      834.888
  454      376.182      834.899
  455      376.636      834.918
  456       377.09      834.963
  457      377.545      835.027
  458      377.999      835.013
  459      378.453      834.939
  460      378.907        834.9
  461      379.361       834.88
  462      379.814       834.86
  463      380.268      834.851
  464      380.722      834.872
  465      381.175      834.924
  466      381.629      834.964
  467      382.082      834.987
  468      382.535      834.993
  469      382.989      834.959
  470      383.442      834.927
  471      383.895      834.911
  472      384.348      834.902
  473      384.801      834.901
  474      385.253      834.912
  475      385.706      834.914
  476      386.159      834.907
  477      386.611      834.917
  478      387.064      834.979
  479      387.516      835.089
  480      387.968      835.176
  481      388.421      835.239
  482      388.873      835.264
  483      389.325      835.282
  484      389.777      835.304
  485      390.229      835.325
  486      390.681      835.428
  487      391.132      835.552
  488      391.584      835.599
  489      392.035      835.627
  490      392.487      835.623
  491      392.938      835.625
  492       393.39      835.661
  493      393.841      835.709
  494      394.292      835.809
  495      394.743      835.937
  496      395.194      836.033
  497      395.645       836.11
  498      396.096      836.138
  499      396.546      836.153
  500      396.997      836.175
  501      397.448      836.209
  502      397.898      836.274
  503      398.349      836.344
  504      398.799      836.396
  505      399.249      836.453
  506      399.699      836.525
  507      400.149      836.587
  508      400.599      836.637
  509      401.049      836.679
  510      401.499      836.752
  511      401.949      836.804
  512      402.398      836.804
  513      402.848      836.798
  514      403.297       836.79
  515      403.747      836.788
  516      404.196      836.793
  517      404.645      836.795
  518      405.094      836.806
  519      405.543      836.821
  520      405.992      836.829
  521      406.441      836.818
  522       406.89      836.773
  523      407.339      836.751
  524      407.787      836.787
  525      408.236      836.808
  526      408.684      836.876
  527      409.132      837.015
  528      409.581      837.129
  529      410.029      837.215
  530      410.477      837.279
  531      410.925      837.319
  532      411.373      837.356
  533      411.821      837.421
  534      412.269      837.501
  535      412.716      837.537
  536      413.164      837.569
  537      413.611      837.601
  538      414.059      837.613
  539      414.506      837.606
  540      414.953      837.634
  541        415.4      837.671
  542      415.847       837.69
  543      416.294      837.696
  544      416.741      837.702
  545      417.188      837.698
  546      417.635      837.687
  547      418.081      837.662
  548      418.528      837.652
  549      418.974      837.683
  550      419.421       837.73
  551      419.867      837.783
  552      420.313      837.848
  553      420.759      837.934
  554      421.205       838.02
  555      421.651       838.09
  556      422.097      838.138
  557      422.543      838.145
  558      422.989      838.125
  559      423.434      838.103
  560       423.88      838.075
  561      424.325       838.06
  562       424.77      838.056
  563      425.216      838.076
  564      425.661      838.116
  565      426.106      838.162
  566      426.551      838.202
  567      426.996      838.287
  568       427.44        838.4
  569      427.885      838.489
  570       428.33      838.581
  571      428.774      838.656
  572      429.219      838.708
  573      429.663      838.748
  574      430.107      838.785
  575      430.551      838.815
  576      430.996      838.841
  577       431.44       838.86
  578      431.883      838.865
  579      432.327      838.835
  580      432.771      838.768
  581      433.215      838.691
  582      433.658       838.62
  583      434.102      838.589
  584      434.545      838.531
  585      434.988      838.463
  586      435.431      838.398
  587      435.875      838.236
  588      436.318      838.063
  589      436.761      837.971
  590      437.203      837.922
  591      437.646      837.899
  592      438.089       837.84
  593      438.531      837.759
  594      438.974      837.675
  595      439.416      837.613
  596      439.859      837.588
  597      440.301       837.58
  598      440.743      837.579
  599      441.185      837.594
  600      441.627      837.607
  601      442.069      837.641
  602       442.51      837.683
  603      442.952      837.697
  604      443.394      837.705
  605      443.835      837.709
  606      444.277        837.7
  607      444.718      837.693
  608      445.159       837.69
  609        445.6      837.711
  610      446.041      837.757
  611      446.482      837.762
  612      446.923       837.77
  613      447.364      837.814
  614      447.804       837.86
  615      448.245       837.93
  616      448.685      838.027
  617      449.126      838.148
  618      449.566      838.289
  619      450.006      838.414
  620      450.447      838.508
  621      450.887      838.562
  622      451.326       838.63
  623      451.766      838.715
  624      452.206      838.747
  625      452.646      838.767
  626      453.085      838.814
  627      453.525      838.791
  628      453.964      838.723
  629      454.403      838.719
  630      454.843      838.772
  631      455.282      838.846
  632      455.721       838.93
  633       456.16      838.991
  634      456.599      838.991
  635      457.037      838.964
  636      457.476      839.012
  637      457.915      839.104
  638      458.353      839.184
  639      458.791      839.267
  640       459.23      839.342
  641      459.668      839.378
  642      460.106      839.399
  643      460.544      839.442
  644      460.982      839.482
  645       461.42      839.504
  646      461.857      839.554
  647      462.295      839.635
  648      462.733      839.736
  649       463.17      839.818
  650      463.607      839.872
  651      464.045      839.903
  652      464.482      839.921
  653      464.919      839.945
  654      465.356      839.959
  655      465.793      839.965
  656       466.23      839.975
  657      466.666      840.033
  658      467.103      840.143
  659      467.539      840.245
  660      467.976      840.335
  661      468.412      840.448
  662      468.848      840.559
  663      469.284      840.669
  664       469.72      840.767
  665      470.156      840.825
  666      470.592      840.858
  667      471.028      840.893
  668      471.464      840.905
  669      471.899      840.887
  670      472.335      840.919
  671       472.77      840.965
  672      473.205      841.002
  673      473.641      841.067
  674      474.076      841.149
  675      474.511      841.223
  676      474.946      841.299
  677       475.38      841.402
  678      475.815       841.54
  679       476.25      841.682
  680      476.684      841.807
  681      477.119       841.92
  682      477.553      842.055
  683      477.987      842.211
  684      478.421      842.376
  685      478.856      842.548
  686      479.289      842.714
  687      479.723      842.857
  688      480.157      842.987
  689      480.591      843.084
  690      481.024      843.159
  691      481.458      843.251
  692      481.891      843.367
  693      482.324      843.515
  694      482.758      843.677
  695      483.191      843.833
  696      483.624      843.929
  697      484.057      843.976
  698      484.489      844.026
  699      484.922       844.08
  700      485.355      844.148
  701      485.787       844.24
  702       486.22      844.343
  703      486.652      844.432
  704      487.084      844.513
  705      487.516      844.615
  706      487.948      844.758
  707       488.38      844.899
  708      488.812      845.017
  709      489.244      845.128
  710      489.676      845.215
  711      490.107      845.291
  712      490.539      845.372
  713       490.97       845.44
  714      491.401      845.528
  715      491.832      845.653
  716      492.263      845.742
  717      492.694      845.834
  718      493.125      845.937
  719      493.556      845.991
  720      493.987      846.076
  721      494.417      846.229
  722      494.848      846.458
  723      495.278      846.704
  724      495.708      846.887
  725      496.139       847.05
  726      496.569       847.17
  727      496.999      847.275
  728      497.429      847.397
  729      497.858      847.522
  730      498.288       847.63
  731      498.718      847.763
  732      499.147      847.933
  733      499.577      848.095
  734      500.006      848.262
  735      500.435      848.465
  736      500.864      848.673
  737      501.293      848.803
  738      501.722      848.895
  739      502.151      849.042
  740       502.58      849.208
  741      503.008      849.384
  742      503.437       849.58
  743      503.865      849.809
  744      504.293      850.056
  745      504.722      850.283
  746       505.15      850.506
  747      505.578      850.751
  748      506.006      851.069
  749      506.434      851.409
  750      506.861      851.706
  751      507.289      851.969
  752      507.716      852.203
  753      508.144      852.438
  754      508.571      852.646
  755      508.998      852.832
  756      509.425      853.022
  757      509.852      853.233
  758      510.279      853.437
  759      510.706        853.6
  760      511.133       853.77
  761       511.56      853.965
  762      511.986      854.153
  763      512.412      854.336
  764      512.839       854.51
  765      513.265      854.685
  766      513.691      854.911
  767      514.117      855.175
  768      514.543      855.441
  769      514.969      855.715
  770      515.395      855.998
  771       515.82      856.258
  772      516.246      856.508
  773      516.671       856.77
  774      517.096      857.048
  775      517.522      857.324
  776      517.947        857.6
  777      518.372      857.882
  778      518.797      858.152
  779      519.222      858.412
  780      519.646      858.687
  781      520.071      858.977
  782      520.495      859.299
  783       520.92      859.662
  784      521.344       860.02
  785      521.768      860.366
  786      522.192      860.737
  787      522.616      861.141
  788       523.04      861.572
  789      523.464      862.011
  790      523.888      862.488
  791      524.311       863.01
  792      524.735      863.529
  793      525.158      864.033
  794      525.581       864.54
  795      526.005      865.057
  796      526.428      865.617
  797      526.851      866.246
  798      527.274      866.887
  799      527.696      867.533
  800      528.119       868.21
  801      528.542      868.918
  802      528.964      869.639
  803      529.386      870.358
  804      529.809      871.116
  805      530.231      871.919
  806      530.653      872.747
  807      531.075      873.575
  808      531.497      874.472
  809      531.918      875.438
  810       532.34      876.452
  811      532.761      877.533
  812      533.183      878.692
  813      533.604      879.918
  814      534.025      881.254
  815      534.447      882.629
  816      534.868       883.97
  817      535.289      885.349
  818      535.709      886.754
  819       536.13      888.215
  820      536.551      889.768
  821      536.971      891.379
  822      537.392      893.039
  823      537.812      894.765
  824      538.232      896.614
  825      538.652      898.655
  826      539.072      900.842
  827      539.492      903.161
  828      539.912      905.627
  829      540.331      908.263
  830      540.751      911.073
  831       541.17      914.011
  832       541.59       917.03
  833      542.009      920.175
  834      542.428      923.489
  835      542.847      926.996
  836      543.266      930.718
  837      543.685      934.717
  838      544.104      938.974
  839      544.522      943.444
  840      544.941      948.129
  841      545.359      953.014
  842      545.778       958.08
  843      546.196      963.382
  844      546.614      968.934
  845      547.032       974.76
  846       547.45      980.914
  847      547.867      987.342
  848      548.285      994.039
  849      548.703      1001.03
  850       549.12      1008.31
  851      549.538      1015.93
  852      549.955      1023.98
  853      550.372      1032.56
  854      550.789      1041.61
  855      551.206      1051.17
  856      551.623      1061.25
  857      552.039      1071.83
  858      552.456      1083.07
  859      552.873      1094.94
  860      553.289      1107.37
  861      553.705      1120.35
  862      554.121      1133.89
  863      554.537       1148.2
  864      554.953      1163.35
  865      555.369      1179.17
  866      555.785      1195.58
  867      556.201      1212.67
  868      556.616      1230.48
  869      557.032       1248.8
  870      557.447      1267.59
  871      557.862      1286.99
  872      558.277      1307.07
  873      558.692       1327.9
  874      559.107      1349.48
  875      559.522       1371.9
  876      559.937      1395.25
  877      560.351       1419.5
  878      560.766      1444.75
  879       561.18      1471.05
  880      561.595      1498.44
  881      562.009      1526.78
  882      562.423      1556.01
  883      562.837      1586.16
  884       563.25      1617.16
  885      563.664      1649.09
  886      564.078      1682.05
  887      564.491      1716.06
  888      564.905      1751.13
  889      565.318      1787.25
  890      565.731      1824.62
  891      566.144      1863.34
  892      566.557      1903.23
  893       566.97      1944.28
  894      567.383       1987.2
  895      567.795      2032.34
  896      568.208      2079.64
  897       568.62      2128.75
  898      569.033      2179.55
  899      569.445      2232.63
  900      569.857      2287.83
  901      570.269         2345
  902      570.681      2404.69
  903      571.093      2467.18
  904      571.504      2532.86
  905      571.916      2601.48
  906      572.327      2672.17
  907      572.739       2745.5
  908       573.15      2822.43
  909      573.561      2903.25
  910      573.972       2987.5
  911      574.383      3075.09
  912      574.794      3166.32
  913      575.204      3260.89
  914      575.615      3358.88
  915      576.025       3460.5
  916      576.436      3566.45
  917      576.846       3677.6
  918      577.256      3793.53
  919      577.666      3913.91
  920      578.076      4039.31
  921      578.486      4170.69
  922      578.896      4308.97
  923      579.305      4453.86
  924      579.715      4603.83
  925      580.124      4755.62
  926      580.533      4907.27
  927      580.942       5058.8
  928      581.351      5210.22
  929       581.76       5361.5
  930      582.169      5512.63
  931      582.578      5663.59
  932      582.986      5814.41
  933      583.395       5965.1
  934      583.803      6115.64
  935      584.212      6266.02
  936       584.62      6416.22
  937      585.028      6566.19
  938      585.436      6715.89
  939      585.843      6865.35
  940      586.251       7014.6
  941      586.659       7163.6
  942      587.066       7312.4
  943      587.474      7461.03
  944      587.881      7609.43
  945      588.288      7757.54
  946      588.695      7905.35
  947      589.102      8052.85
  948      589.509      8200.09
  949      589.915      8347.03
  950      590.322      8493.58
  951      590.728      8639.83
  952      591.135       8785.8
  953      591.541      8931.37
  954      591.947      9076.44
  955      592.353      9221.04
  956      592.759      9365.14
  957      593.165      9508.72
  958      593.571       9651.8
  959      593.976      9794.21
  960      594.382      9935.98
  961      594.787      10077.2
  962      595.192      10217.9
  963      595.597        10358
  964      596.002      10497.3
  965      596.407      10633.1
  966      596.812      10756.3
  967      597.217      10866.9
  968      597.621      10964.6
  969      598.026      11050.7
  970       598.43      11126.6
  971      598.834      11193.2
  972      599.238      11250.9
  973      599.642      11300.5
  974      600.046      11342.7
  975       600.45      11378.3
  976      600.854      11407.9
  977      601.257      11432.2
  978      601.661      11451.8
  979      602.064      11466.8
  980      602.467      11477.7
  981       602.87      11484.7
  982      603.273      11488.1
  983      603.676      11488.3
  984      604.079      11485.3
  985      604.481      11479.1
  986      604.884      11470.2
  987      605.286      11458.8
  988      605.689      11444.7
  989      606.091        11428
  990      606.493      11408.9
  991      606.895      11387.2
  992      607.297      11362.8
  993      607.698      11335.9
  994        608.1      11306.8
  995      608.501      11274.9
  996      608.903      11239.8
  997      609.304      11201.8
  998      609.705      11161.3
  999      610.106      11118.3
 1000      610.507      11072.5
 1001      610.908      11023.9
 1002      611.308      10972.9
 1003      611.709      10918.8
 1004      612.109      10861.4
 1005       612.51      10800.4
 1006       612.91        10736
 1007       613.31      10669.2
 1008       613.71      10599.4
 1009       614.11      10525.7
 1010       614.51      10447.8
 1011      614.909      10366.2
 1012      615.309        10281
 1013      615.708      10191.9
 1014      616.108      10099.2
 1015      616.507      10002.9
 1016      616.906      9902.72
 1017      617.305      9797.96
 1018      617.704      9687.86
 1019      618.102       9572.8
 1020      618.501      9453.07
 1021      618.899      9328.12
 1022      619.298      9197.03
 1023      619.696      9058.85
 1024      620.094      8913.94
 1025      620.492      8763.79
 1026       620.89      8611.58
 1027      621.288      8459.28
 1028      621.686      8306.92
 1029      622.083      8154.51
 1030       622.48      8002.04
 1031      622.878      7849.52
 1032      623.275      7696.96
 1033      623.672      7544.37
 1034      624.069      7391.74
 1035      624.466      7239.03
 1036      624.863      7086.24
 1037      625.259       6933.4
 1038      625.656      6780.53
 1039      626.052      6627.64
 1040      626.448       6474.7
 1041      626.844      6321.71
 1042      627.241      6168.69
 1043      627.636      6015.63
 1044      628.032      5862.53
 1045      628.428      5709.39
 1046      628.823      5556.26
 1047      629.219      5403.14
 1048      629.614      5249.96
 1049      630.009      5096.77
 1050      630.404      4943.57
 1051      630.799      4790.36
 1052      631.194      4637.22
 1053      631.589      4484.13
 1054      631.984      4330.97
 1055      632.378      4177.77
 1056      632.772      4024.55
 1057      633.167      3871.31
 1058      633.561      3718.06
 1059      633.955      3564.77
 1060      634.349      3411.47
 1061      634.743      3258.15
 1062      635.136      3104.81
 1063       635.53      2951.46
 1064      635.923      2798.13
 1065      636.316      2644.82
 1066       636.71      2494.26
 1067      637.103      2355.59
 1068      637.496      2228.87
 1069      637.888      2114.33
 1070      638.281      2010.73
 1071      638.674      1916.74
 1072      639.066      1831.61
 1073      639.459      1754.65
 1074      639.851      1685.21
 1075      640.243      1622.35
 1076      640.635      1565.34
 1077      641.027      1513.48
 1078      641.419         1466
 1079       641.81      1422.33
 1080      642.202       1382.2
 1081      642.593      1345.21
 1082      642.984      1310.97
 1083      643.375      1279.32
 1084      643.766      1250.06
 1085      644.157      1223.06
 1086      644.548      1198.21
 1087      644.939      1175.22
 1088      645.329      1153.77
 1089       645.72      1133.87
 1090       646.11      1115.49
 1091        646.5      1098.46
 1092       646.89      1082.74
 1093       647.28      1068.43
 1094       647.67      1055.35
 1095       648.06       1043.3
 1096      648.449      1032.23
 1097      648.839      1022.03
 1098      649.228      1012.56
 1099      649.617      1003.78
 1100      650.007      995.705
 1101      650.396      988.239
 1102      650.784      981.285
 1103      651.173      974.837
 1104      651.562      968.921
 1105       651.95      963.478
 1106      652.339       958.43
 1107      652.727      953.745
 1108      653.115      949.365
 1109      653.503      945.262
 1110      653.891      941.434
 1111      654.279      937.874
 1112      654.666      934.552
 1113      655.054      931.509
 1114      655.441      928.654
 1115      655.828       925.88
 1116      656.216      923.242
 1117      656.603      920.765
 1118      656.989      918.443
 1119      657.376      916.258
 1120      657.763      914.215
 1121      658.149      912.319
 1122      658.536      910.571
 1123      658.922      908.939
 1124      659.308      907.389
 1125      659.694      905.879
 1126       660.08      904.381
 1127      660.466       902.97
 1128      660.852      901.654
 1129      661.237      900.403
 1130      661.623      899.235
 1131      662.008      898.131
 1132      662.393      897.044
 1133      662.778       895.98
 1134      663.163      894.952
 1135      663.548       893.97
 1136      663.933      893.035
 1137      664.317       892.19
 1138      664.702      891.434
 1139      665.086      890.685
 1140       665.47      889.972
 1141      665.854      889.333
 1142      666.238      888.696
 1143      666.622      888.038
 1144      667.006      887.393
 1145      667.389       886.78
 1146      667.773      886.211
 1147      668.156      885.628
 1148      668.539      885.008
 1149      668.923      884.415
 1150      669.305      883.854
 1151      669.688      883.323
 1152      670.071      882.795
 1153      670.454       882.17
 1154      670.836      881.481
 1155      671.218      880.845
 1156      671.601      880.257
 1157      671.983      879.687
 1158      672.365      879.281
 1159      672.747      879.011
 1160      673.128      878.663
 1161       673.51       878.25
 1162      673.891      877.795
 1163      674.273       877.33
 1164      674.654      876.883
 1165      675.035      876.406
 1166      675.416      875.873
 1167      675.797      875.345
 1168      676.177      874.838
 1169      676.558      874.342
 1170      676.938      873.817
 1171      677.319      873.268
 1172      677.699      872.717
 1173      678.079       872.15
 1174      678.459      871.572
 1175      678.839      870.972
 1176      679.219      870.361
 1177      679.598      869.758
 1178      679.978       869.17
 1179      680.357       868.58
 1180      680.736      868.013
 1181      681.115      867.541
 1182      681.494      867.092
 1183      681.873      866.533
 1184      682.252        865.9
 1185       682.63      865.283
 1186      683.009      864.662
 1187      683.387      864.034
 1188      683.765      863.417
 1189      684.143      862.811
 1190      684.521      862.191
 1191      684.899      861.569
 1192      685.277      860.959
 1193      685.654      860.323
 1194      686.032      859.663
 1195      686.409      859.036
 1196      686.786      858.419
 1197      687.163      857.755
 1198       687.54      857.072
 1199      687.917      856.402
 1200      688.294      855.752
 1201       688.67      855.102
 1202      689.046      854.437
 1203      689.423      853.791
 1204      689.799      853.165
 1205      690.175      852.519
 1206      690.551      851.876
 1207      690.927      851.236
 1208      691.302      850.585
 1209      691.678      849.957
 1210      692.053      849.362
 1211      692.428      848.781
 1212      692.804      848.206
 1213      693.179       847.64
 1214      693.553      847.011
 1215      693.928      846.346
 1216      694.303      845.724
 1217      694.677      845.144
 1218      695.052      844.584
 1219      695.426      844.049
 1220        695.8      843.518
 1221      696.174      842.957
 1222      696.548      842.406
 1223      696.921      841.839
 1224      697.295      841.258
 1225      697.669      840.708
 1226      698.042      840.144
 1227      698.415      839.601
 1228      698.788      839.111
 1229      699.161      838.631
 1230      699.534      838.128
 1231      699.907      837.566
 1232      700.279      836.989
 1233      700.652      836.461
 1234      701.024      835.946
 1235      701.396       835.41
 1236      701.768      834.859
 1237       702.14      834.326
 1238      702.512      833.756
 1239      702.883       833.16
 1240      703.255      832.587
 1241      703.626      831.995
 1242      703.998      831.394
 1243      704.369      830.849
 1244       704.74      830.362
 1245      705.111      829.949
 1246      705.481      829.563
 1247      705.852      829.123
 1248      706.222      828.659
 1249      706.593      828.225
 1250      706.963      827.805
 1251      707.333      827.371
 1252      707.703      826.914
 1253      708.073      826.473
 1254      708.442      826.334
 1255      708.812      826.378
 1256      709.181      826.239
 1257      709.551      825.978
 1258       709.92      825.641
 1259      710.289      825.121
 1260      710.658      824.469
 1261      711.027      823.917
 1262      711.395      823.447
 1263      711.764      823.056
 1264      712.132        822.7
 1265        712.5      822.313
 1266      712.869      821.914
 1267      713.236      821.536
 1268      713.604      821.182
 1269      713.972      820.804
 1270       714.34      820.426
 1271      714.707      820.056
 1272      715.074      819.706
 1273      715.442      819.392
 1274      715.809      819.084
 1275      716.176      818.804
 1276      716.542      818.559
 1277      716.909      818.317
 1278      717.276      818.052
 1279      717.642       817.77
 1280      718.008      817.477
 1281      718.374      817.155
 1282       718.74      816.777
 1283      719.106      816.419
 1284      719.472       816.15
 1285      719.838      815.909
 1286      720.203      815.656
 1287      720.568      815.415
 1288      720.934      815.183
 1289      721.299      814.972
 1290      721.664      814.741
 1291      722.029      814.486
 1292      722.393      814.234
 1293      722.758          814
 1294      723.122      813.784
 1295      723.486      813.592
 1296      723.851      813.405
 1297      724.215      813.209
 1298      724.578      813.038
 1299      724.942      812.893
 1300      725.306       812.73
 1301      725.669      812.542
 1302      726.033      812.359
 1303      726.396      812.197
 1304      726.759      812.016
 1305      727.122      811.827
 1306      727.485      811.659
 1307      727.847      811.486
 1308       728.21      811.314
 1309      728.572      811.163
 1310      728.935       810.98
 1311      729.297      810.759
 1312      729.659      810.531
 1313      730.021      810.295
 1314      730.382      810.059
 1315      730.744      809.842
 1316      731.105      809.658
 1317      731.467        809.5
 1318      731.828       809.42
 1319      732.189        809.4
 1320       732.55      809.288
 1321      732.911      809.134
 1322      733.271      809.006
 1323      733.632      808.871
 1324      733.992      808.737
 1325      734.352      808.586
 1326      734.713      808.408
 1327      735.072      808.262
 1328      735.432       808.12
 1329      735.792      807.933
 1330      736.152      807.741
 1331      736.511      807.561
 1332       736.87      807.389
 1333      737.229      807.216
 1334      737.589      807.015
 1335      737.947      806.811
 1336      738.306       806.63
 1337      738.665      806.489
 1338      739.023      806.381
 1339      739.382      806.288
 1340       739.74      806.193
 1341      740.098      806.105
 1342      740.456      806.008
 1343      740.814      805.893
 1344      741.171      805.773
 1345      741.529      805.625
 1346      741.886       805.44
 1347      742.244      805.299
 1348      742.601      805.214
 1349      742.958      805.107
 1350      743.314      804.985
 1351      743.671      804.846
 1352      744.028      804.689
 1353      744.384      804.524
 1354       744.74      804.346
 1355      745.097      803.884
 1356      745.453      803.256
 1357      745.809      802.826
 1358      746.164      802.514
 1359       746.52      802.273
 1360      746.875      802.068
 1361      747.231      801.893
 1362      747.586       801.72
 1363      747.941      801.544
 1364      748.296       801.35
 1365      748.651       801.15
 1366      749.005      800.962
 1367       749.36      800.798
 1368      749.714      800.645
 1369      750.069      800.456
 1370      750.423       800.25
 1371      750.777      800.059
 1372       751.13      799.893
 1373      751.484      799.737
 1374      751.838      799.586
 1375      752.191      799.466
 1376      752.544      799.344
 1377      752.897      799.211
 1378       753.25        799.1
 1379      753.603      799.004
 1380      753.956      798.899
 1381      754.309      798.783
 1382      754.661      798.648
 1383      755.013      798.482
 1384      755.365      798.289
 1385      755.717      798.091
 1386      756.069      797.903
 1387      756.421      797.755
 1388      756.773      797.664
 1389      757.124      797.572
 1390      757.476      797.452
 1391      757.827       797.35
 1392      758.178      797.258
 1393      758.529      797.152
 1394      758.879       797.03
 1395       759.23      796.901
 1396      759.581      796.789
 1397      759.931       796.68
 1398      760.281      796.557
 1399      760.631      796.443
 1400      760.981      796.394
 1401      761.331      796.402
 1402      761.681      796.349
 1403       762.03      796.234
 1404      762.379      796.094
 1405      762.729      795.964
 1406      763.078      795.827
 1407      763.427      795.693
 1408      763.776      795.567
 1409      764.124      795.449
 1410      764.473      795.334
 1411      764.821      795.247
 1412      765.169      795.161
 1413      765.517      795.068
 1414      765.865      794.983
 1415      766.213      794.922
 1416      766.561       794.87
 1417      766.909      794.775
 1418      767.256      794.647
 1419      767.603      794.435
 1420       767.95       794.15
 1421      768.297       793.93
 1422      768.644      793.764
 1423      768.991      793.618
 1424      769.337      793.466
 1425      769.684      793.295
 1426       770.03      793.143
 1427      770.376      793.011
 1428      770.722      792.864
 1429      771.068      792.715
 1430      771.414      792.596
 1431      771.759      792.482
 1432      772.105      792.399
 1433       772.45      792.402
 1434      772.795      792.414
 1435       773.14      792.384
 1436      773.485      792.346
 1437       773.83      792.317
 1438      774.174      792.249
 1439      774.519      792.143
 1440      774.863      792.033
 1441      775.207      791.921
 1442      775.551      791.812
 1443      775.895      791.706
 1444      776.239      791.593
 1445      776.582      791.471
 1446      776.926      791.379
 1447      777.269       791.28
 1448      777.612      791.103
 1449      777.955      790.922
 1450      778.298      790.778
 1451      778.641      790.654
 1452      778.983      790.567
 1453      779.326      790.492
 1454      779.668      790.441
 1455       780.01      790.396
 1456      780.352      790.349
 1457      780.694      790.309
 1458      781.036      790.259
 1459      781.377      790.186
 1460      781.719      790.111
 1461       782.06      790.028
 1462      782.401      789.953
 1463      782.742        789.9
 1464      783.083      789.825
 1465      783.424      789.761
 1466      783.764      789.725
 1467      784.105      789.688
 1468      784.445      789.634
 1469      784.785      789.596
 1470      785.125      789.585
 1471      785.465      789.566
 1472      785.805      789.536
 1473      786.144      789.509
 1474      786.484      789.454
 1475      786.823      789.375
 1476      787.162      789.296
 1477      787.501      789.232
 1478       787.84       789.17
 1479      788.178      789.117
 1480      788.517      789.106
 1481      788.855      789.107
 1482      789.194      789.099
 1483      789.532      789.113
 1484       789.87      789.107
 1485      790.208      789.127
 1486      790.545      789.183
 1487      790.883      789.206
 1488       791.22      789.168
 1489      791.557      789.066
 1490      791.894      788.994
 1491      792.231      788.944
 1492      792.568      788.864
 1493      792.905      788.822
 1494      793.241      788.799
 1495      793.578      788.742
 1496      793.914      788.683
 1497       794.25      788.608
 1498      794.586      788.495
 1499      794.922       788.41
 1500      795.257       788.35
 1501      795.593      788.216
 1502      795.928      788.022
 1503      796.263      787.912
 1504      796.598      787.887
 1505      796.933       787.88
 1506      797.268      787.864
 1507      797.603      787.847
 1508      797.937      787.824
 1509      798.271      787.798
 1510      798.606      787.806
 1511       798.94      787.849
 1512      799.274       787.88
 1513      799.607       787.95
 1514      799.941      788.042
 1515      800.274        788.1
 1516      800.608      788.111
 1517      800.941      788.111
 1518      801.274      788.122
 1519      801.607      788.129
 1520      801.939      788.117
 1521      802.272      788.081
 1522      802.604      788.037
 1523      802.936      787.976
 1524      803.269      787.922
 1525      803.601      787.913
 1526      803.932      787.941
 1527      804.264      787.974
 1528      804.596      788.009
 1529      804.927       788.06
 1530      805.258      788.116
 1531      805.589      788.162
 1532       805.92      788.209
 1533      806.251       788.19
 1534      806.582      788.096
 1535      806.912       788.01
 1536      807.242      787.952
 1537      807.573      787.947
 1538      807.903      787.968
 1539      808.232      787.968
 1540      808.562      787.949
 1541      808.892      787.916
 1542      809.221      787.907
 1543      809.551      787.911
 1544       809.88      787.899
 1545      810.209      787.889
 1546      810.538      787.909
 1547      810.866      787.919
 1548      811.195       787.92
 1549      811.523      787.939
 1550      811.851       787.96
 1551       812.18      788.053
 1552      812.507      788.181
 1553      812.835       788.25
 1554      813.163      788.277
 1555       813.49      788.257
 1556      813.818      788.208
 1557      814.145      788.185
 1558      814.472       788.18
 1559      814.799       788.18
 1560      815.126      788.211
 1561      815.452      788.235
 1562      815.779      788.242
 1563      816.105      788.237
 1564      816.431      788.229
 1565      816.757      788.243
 1566      817.083      788.254
 1567      817.409      788.259
 1568      817.734      788.255
 1569       818.06      788.249
 1570      818.385      788.233
 1571       818.71      788.216
 1572      819.035        788.2
 1573       819.36      788.175
 1574      819.685       788.15
 1575      820.009      788.143
 1576      820.333       788.16
 1577      820.658      788.164
 1578      820.982      788.164
 1579      821.305      788.328
 1580      821.629      788.574
 1581      821.953      788.667
 1582      822.276      788.688
 1583        822.6      788.715
 1584      822.923      788.734
 1585      823.246      788.742
 1586      823.569      788.729
 1587      823.891      788.682
 1588      824.214      788.646
 1589      824.536      788.642
 1590      824.858      788.635
 1591       825.18      788.577
 1592      825.502      788.554
 1593      825.824       788.63
 1594      826.146      788.668
 1595      826.467      788.646
 1596      826.789      788.622
 1597       827.11      788.584
 1598      827.431      788.529
 1599      827.752      788.542
 1600      828.072      788.591
 1601      828.393      788.582
 1602      828.713      788.573
 1603      829.034      788.568
 1604      829.354      788.555
 1605      829.674      788.533
 1606      829.993      788.516
 1607      830.313      788.543
 1608      830.633      788.593
 1609      830.952      788.601
 1610      831.271      788.593
 1611       831.59      788.524
 1612      831.909      788.416
 1613      832.228      788.319
 1614      832.546      788.177
 1615      832.865      788.016
 1616      833.183      787.876
 1617      833.501      787.757
 1618      833.819      787.633
 1619      834.137      787.499
 1620      834.455      787.371
 1621      834.772      787.264
 1622      835.089      787.189
 1623      835.407      787.129
 1624      835.724      787.083
 1625       836.04      787.032
 1626      836.357      786.986
 1627      836.674      786.975
 1628       836.99      786.954
 1629      837.306      786.917
 1630      837.623      786.845
 1631      837.939      786.739
 1632      838.254       786.61
 1633       838.57      786.468
 1634      838.886       786.37
 1635      839.201      786.275
 1636      839.516      786.164
 1637      839.831       786.09
 1638      840.146      785.985
 1639      840.461      785.833
 1640      840.775      785.717
 1641       841.09       785.64
 1642      841.404      785.592
 1643      841.718      785.534
 1644      842.032      785.443
 1645      842.346      785.377
 1646      842.659      785.331
 1647      842.973      785.256
 1648      843.286       785.17
 1649      843.599      785.095
 1650      843.912      785.029
 1651      844.225      784.926
 1652      844.538      784.747
 1653      844.851      784.588
 1654      845.163      784.513
 1655      845.475      784.449
 1656      845.787      784.444
 1657      846.099      784.487
 1658      846.411      784.469
 1659      846.723      784.417
 1660      847.034      784.361
 1661      847.345      784.316
 1662      847.657      784.278
 1663      847.968      784.216
 1664      848.278      784.134
 1665      848.589       784.05
 1666        848.9      783.969
 1667       849.21      783.854
 1668       849.52      783.712
 1669       849.83      783.587
 1670       850.14       783.51
 1671       850.45      783.461
 1672      850.759      783.378
 1673      851.069      783.297
 1674      851.378      783.223
 1675      851.687      783.193
 1676      851.996      783.196
 1677      852.305      783.138
 1678      852.614      783.046
 1679      852.922       782.95
 1680       853.23      782.699
 1681      853.539       782.34
 1682      853.847      782.082
 1683      854.154      781.903
 1684      854.462      781.754
 1685       854.77      781.605
 1686      855.077      781.479
 1687      855.384      781.333
 1688      855.691      781.186
 1689      855.998       781.08
 1690      856.305      780.978
 1691      856.612      780.886
 1692      856.918      780.816
 1693      857.224      780.708
 1694       857.53      780.529
 1695      857.836      780.355
 1696      858.142      780.215
 1697      858.448      780.116
 1698      858.753       780.04
 1699      859.059       779.96
 1700      859.364      779.837
 1701      859.669      779.684
 1702      859.974      779.554
 1703      860.278      779.425
 1704      860.583      779.311
 1705      860.887      779.195
 1706      861.192      779.072
 1707      861.496      778.952
 1708        861.8      778.798
 1709      862.103       778.63
 1710      862.407      778.522
 1711       862.71       778.42
 1712      863.014      778.327
 1713      863.317      778.233
 1714       863.62      778.147
 1715      863.922      778.101
 1716      864.225      778.076
 1717      864.527      778.046
 1718       864.83      778.005
 1719      865.132      777.961
 1720      865.434      777.946
 1721      865.736      777.949
 1722      866.037      777.943
 1723      866.339      777.924
 1724       866.64      777.902
 1725      866.941      777.876
 1726      867.242      777.839
 1727      867.543      777.747
 1728      867.844      777.586
 1729      868.145      777.444
 1730      868.445      777.355
 1731      868.745      777.315
 1732      869.045      777.273
 1733      869.345      777.266
 1734      869.645      777.285
 1735      869.944      777.269
 1736      870.244      777.241
 1737      870.543      777.203
 1738      870.842      777.164
 1739      871.141      777.117
 1740       871.44      777.074
 1741      871.739      777.035
 1742      872.037      776.996
 1743      872.335      776.947
 1744      872.634      776.942
 1745      872.931      776.984
 1746      873.229      776.961
 1747      873.527      776.889
 1748      873.824      776.875
 1749      874.122      776.903
 1750      874.419      776.889
 1751      874.716      776.869
 1752      875.013      776.883
 1753      875.309       776.87
 1754      875.606      776.831
 1755      875.902      776.848
 1756      876.199      776.919
 1757      876.495       776.91
 1758       876.79      776.851
 1759      877.086      776.795
 1760      877.382      776.732
 1761      877.677      776.677
 1762      877.972      776.591
 1763      878.267      776.507
 1764      878.562      776.492
 1765      878.857      776.505
 1766      879.152      776.478
 1767      879.446      776.439
 1768       879.74       776.41
 1769      880.034      776.366
 1770      880.328      776.309
 1771      880.622      776.195
 1772      880.916      776.044
 1773      881.209      775.945
 1774      881.502      775.872
 1775      881.795       775.82
 1776      882.088       775.73
 1777      882.381      775.605
 1778      882.674      775.534
 1779      882.966      775.513
 1780      883.258      775.504
 1781      883.551      775.469
 1782      883.843      775.436
 1783      884.134      775.411
 1784      884.426      775.356
 1785      884.717      775.281
 1786      885.009      775.207
 1787        885.3       775.15
 1788      885.591      775.104
 1789      885.882      775.055
 1790      886.172      774.991
 1791      886.463       774.92
 1792      886.753      774.874
 1793      887.043       774.86
 1794      887.333      774.829
 1795      887.623      774.765
 1796      887.913      774.699
 1797      888.202      774.658
 1798      888.492      774.634
 1799      888.781      774.631
 1800       889.07       774.63
 1801      889.359      774.604
 1802      889.647      774.568
 1803      889.936      774.542
 1804      890.224       774.51
 1805      890.512      774.484
 1806        890.8      774.484
 1807      891.088      774.494
 1808      891.376      774.512
 1809      891.663      774.539
 1810      891.951      774.539
 1811      892.238      774.494
 1812      892.525      774.506
 1813      892.812      774.564
 1814      893.099      774.561
 1815      893.385      774.518
 1816      893.671      774.461
 1817      893.958      774.408
 1818      894.244      774.373
 1819       894.53      774.374
 1820      894.815      774.395
 1821      895.101       774.37
 1822      895.386      774.298
 1823      895.671       774.23
 1824      895.956      774.183
 1825      896.241      774.131
 1826      896.526      774.091
 1827       896.81      774.045
 1828      897.095      773.971
 1829      897.379      773.888
 1830      897.663      773.791
 1831      897.947      773.662
 1832      898.231      773.519
 1833      898.514      773.413
 1834      898.798      773.286
 1835      899.081      773.151
 1836      899.364      773.046
 1837      899.647       772.95
 1838      899.929      772.882
 1839      900.212      772.799
 1840      900.494      772.698
 1841      900.776      772.592
 1842      901.058      772.476
 1843       901.34      772.395
 1844      901.622      772.347
 1845      901.904      772.274
 1846      902.185       772.17
 1847      902.466      772.071
 1848      902.747       771.98
 1849      903.028      771.833
 1850      903.309      771.664
 1851      903.589      771.546
 1852       903.87      771.446
 1853       904.15      771.341
 1854       904.43      771.266
 1855       904.71      771.145
 1856      904.989      770.927
 1857      905.269      770.698
 1858      905.548      770.535
 1859      905.827      770.383
 1860      906.106      770.263
 1861      906.385       770.17
 1862      906.664      770.086
 1863      906.942      770.022
 1864      907.221      769.964
 1865      907.499      769.875
 1866      907.777      769.772
 1867      908.055      769.701
 1868      908.332      769.627
 1869       908.61      769.567
 1870      908.887      769.521
 1871      909.164      769.468
 1872      909.441      769.446
 1873      909.718      769.443
 1874      909.995      769.428
 1875      910.271      769.406
 1876      910.548      769.366
 1877      910.824      769.322
 1878        911.1      769.289
 1879      911.375      769.249
 1880      911.651      769.194
 1881      911.927      769.116
 1882      912.202       769.04
 1883      912.477      768.959
 1884      912.752      768.882
 1885      913.027      768.836
 1886      913.301       768.82
 1887      913.576      768.804
 1888       913.85      768.791
 1889      914.124      768.795
 1890      914.398      768.782
 1891      914.672      768.758
 1892      914.945      768.731
 1893      915.219      768.688
 1894      915.492      768.619
 1895      915.765      768.566
 1896      916.038      768.544
 1897      916.311      768.574
 1898      916.583      768.625
 1899      916.856      768.606
 1900      917.128      768.537
 1901        917.4      768.476
 1902      917.672      768.423
 1903      917.944        768.4
 1904      918.215      768.435
 1905      918.486      768.478
 1906      918.758      768.481
 1907      919.029      768.439
 1908      919.299       768.37
 1909       919.57      768.288
 1910      919.841      768.203
 1911      920.111      768.161
 1912      920.381       768.15
 1913      920.651      768.061
 1914      920.921      767.923
 1915      921.191       767.84
 1916       921.46      767.808
 1917      921.729      767.802
 1918      921.999      767.786
 1919      922.268      767.755
 1920      922.536      767.692
 1921      922.805      767.608
 1922      923.073      767.542
 1923      923.342      767.516
 1924       923.61      767.507
 1925      923.878      767.478
 1926      924.145      767.437
 1927      924.413      767.368
 1928       924.68      767.312
 1929      924.948      767.322
 1930      925.215      767.371
 1931      925.482      767.406
 1932      925.748      767.412
 1933      926.015      767.407
 1934      926.281      767.397
 1935      926.547      767.394
 1936      926.813      767.384
 1937      927.079      767.382
 1938      927.345      767.378
 1939       927.61      767.355
 1940      927.876      767.339
 1941      928.141      767.324
 1942      928.406      767.308
 1943      928.671      767.298
 1944      928.935      767.281
 1945        929.2      767.281
 1946      929.464      767.269
 1947      929.728      767.234
 1948      929.992      767.224
 1949      930.256      767.224
 1950       930.52      767.231
 1951      930.783      767.214
 1952      931.046      767.172
 1953      931.309      767.115
 1954      931.572      767.076
 1955      931.835      767.057
 1956      932.097      767.055
 1957       932.36       767.07
 1958      932.622      767.069
 1959      932.884      767.046
 1960      933.146      767.033
 1961      933.408      767.016
 1962      933.669      766.989
 1963       933.93       766.96
 1964      934.192      766.928
 1965      934.453      766.913
 1966      934.713      766.943
 1967      934.974      766.984
 1968      935.234      766.987
 1969      935.495      766.969
 1970      935.755       766.92
 1971      936.015      766.882
 1972      936.274      766.877
 1973      936.534      766.875
 1974      936.793      766.871
 1975      937.053      766.859
 1976      937.312      766.826
 1977      937.571      766.791
 1978      937.829      766.753
 1979      938.088      766.717
 1980      938.346      766.703
 1981      938.604      766.696
 1982      938.862      766.674
 1983       939.12      766.657
 1984      939.378      766.664
 1985      939.635      766.669
 1986      939.893      766.658
 1987       940.15      766.656
 1988      940.407      766.665
 1989      940.663      766.653
 1990       940.92       766.63
 1991      941.176      766.625
 1992      941.433      766.621
 1993      941.689      766.614
 1994      941.944      766.607
 1995        942.2      766.588
 1996      942.456      766.546
 1997      942.711      766.479
 1998      942.966       766.42
 1999      943.221      766.338
 2000      943.476      766.305
 2001      943.731      766.293
 2002      943.985      766.293
 2003      944.239        766.3
 2004      944.493       766.27
 2005      944.747      766.178
 2006      945.001      766.093
 2007      945.255      766.042
 2008      945.508      766.017
 2009      945.761       766.01
 2010      946.014          766
 2011      946.267      765.977
 2012       946.52      765.931
 2013      946.772      765.884
 2014      947.025      765.866
 2015      947.277      765.862
 2016      947.529      765.871
 2017      947.781      765.863
 2018      948.032      765.822
 2019      948.284      765.782
 2020      948.535      765.746
 2021      948.786      765.701
 2022      949.037      765.672
 2023      949.288      765.672
 2024      949.538      765.672
 2025      949.789      765.654
 2026      950.039      765.644
 2027      950.289      765.655
 2028      950.539      765.688
 2029      950.788      765.712
 2030      951.038      765.687
 2031      951.287       765.64
 2032      951.536      765.623
 2033      951.785      765.651
 2034      952.034      765.689
 2035      952.282      765.721
 2036      952.531      765.728
 2037      952.779      765.724
 2038      953.027      765.715
 2039      953.275      765.714
 2040      953.523      765.731
 2041       953.77      765.753
 2042      954.017      765.796
 2043      954.264      765.856
 2044      954.511      765.914
 2045      954.758      765.922
 2046      955.005      765.828
 2047      955.251      765.696
