scansci Spectrometer Data File
--- Measurement Setting ---
Type: Sample Spectrum
Date: Fri Nov 29 18:32:13 2024
User: (Reserved by scansci)
Serial: (Reserved by scansci)
Channel: No. 11
Integration Time: 100
Average: 10
Boxcar: 1
Electrical Dark: No-corrected
Time Normalize: (Reserved by scansci)
Dual-beam: (Reserved by scansci)
Reference Ch: (Reserved by scansci)
--- Measurement Data ---
Pixel   Wavelength   Intensity
    0        344.4       790.25
    1      344.867      789.967
    2      345.334      789.467
    3      345.801        788.2
    4      346.268      787.633
    5      346.735      788.133
    6      347.202      788.633
    7      347.669      788.467
    8      348.135      787.133
    9      348.602      785.667
   10      349.068        784.4
   11      349.535      783.233
   12      350.001        782.5
   13      350.467        783.7
   14      350.933      786.167
   15      351.399        788.3
   16      351.866      788.933
   17      352.331      788.633
   18      352.797        788.1
   19      353.263      786.667
   20      353.729        784.4
   21      354.194        782.7
   22       354.66      782.167
   23      355.126      782.833
   24      355.591        784.1
   25      356.056        785.6
   26      356.522      787.233
   27      356.987        787.5
   28      357.452      786.867
   29      357.917        785.9
   30      358.382      784.933
   31      358.847      784.467
   32      359.312        785.8
   33      359.776        788.3
   34      360.241      790.467
   35      360.706      790.533
   36       361.17      790.233
   37      361.634        790.4
   38      362.099        790.4
   39      362.563      790.167
   40      363.027      789.333
   41      363.491        788.6
   42      363.955      787.267
   43      364.419          786
   44      364.883        785.5
   45      365.347        785.9
   46      365.811        786.4
   47      366.274      786.733
   48      366.738      787.867
   49      367.201      789.767
   50      367.665      790.467
   51      368.128      789.133
   52      368.592      786.733
   53      369.055          785
   54      369.518      784.433
   55      369.981        784.1
   56      370.444      784.033
   57      370.907        784.3
   58       371.37      785.167
   59      371.832      786.067
   60      372.295      786.167
   61      372.757        785.4
   62       373.22      785.467
   63      373.682        786.1
   64      374.145        787.1
   65      374.607      786.933
   66      375.069      785.933
   67      375.531      784.833
   68      375.993      783.067
   69      376.455      781.933
   70      376.917      781.467
   71      377.379        782.6
   72      377.841        784.2
   73      378.302      784.567
   74      378.764        784.3
   75      379.225      784.067
   76      379.687      784.433
   77      380.148        785.6
   78      380.609      786.833
   79      381.071      787.467
   80      381.532      786.867
   81      381.993        785.2
   82      382.454      783.967
   83      382.915      782.267
   84      383.375      780.967
   85      383.836        780.6
   86      384.297      782.567
   87      384.757      784.933
   88      385.218      786.567
   89      385.678      787.033
   90      386.138      786.733
   91      386.599      786.433
   92      387.059          786
   93      387.519      785.667
   94      387.979        785.8
   95      388.439      786.133
   96      388.899      787.333
   97      389.358        788.5
   98      389.818        789.9
   99      390.278      790.867
  100      390.737      791.733
  101      391.197      791.933
  102      391.656        793.7
  103      392.115      795.967
  104      392.575      796.267
  105      393.034        793.8
  106      393.493      789.433
  107      393.952      787.467
  108      394.411        788.8
  109       394.87      792.267
  110      395.328      794.833
  111      395.787        794.7
  112      396.246      792.967
  113      396.704      791.167
  114      397.163      788.967
  115      397.621      787.133
  116      398.079      785.733
  117      398.537      784.767
  118      398.995      784.067
  119      399.454      783.833
  120      399.911        784.3
  121      400.369      783.867
  122      400.827      783.233
  123      401.285      783.767
  124      401.743        785.6
  125        402.2      786.767
  126      402.658        786.4
  127      403.115        785.4
  128      403.572          784
  129       404.03      782.533
  130      404.487      781.567
  131      404.944      781.733
  132      405.401      782.867
  133      405.858        783.7
  134      406.315      785.167
  135      406.771      786.233
  136      407.228        787.8
  137      407.685      788.533
  138      408.141      789.067
  139      408.598        789.5
  140      409.054      789.767
  141       409.51      788.967
  142      409.967          787
  143      410.423        784.3
  144      410.879      782.633
  145      411.335        783.1
  146      411.791      785.333
  147      412.246      788.167
  148      412.702      789.533
  149      413.158      790.467
  150      413.613      791.267
  151      414.069      791.667
  152      414.524        792.2
  153       414.98        792.2
  154      415.435        791.1
  155       415.89      788.533
  156      416.345      786.467
  157        416.8      786.933
  158      417.255      788.367
  159       417.71      789.667
  160      418.165      789.833
  161      418.619      789.267
  162      419.074      788.933
  163      419.529        788.7
  164      419.983      789.267
  165      420.437        790.2
  166      420.892      791.233
  167      421.346      791.267
  168        421.8      789.667
  169      422.254        788.6
  170      422.708      788.733
  171      423.162      788.933
  172      423.616        788.5
  173       424.07      787.667
  174      424.523      791.633
  175      424.977      798.333
  176       425.43        802.2
  177      425.884        799.3
  178      426.337        792.1
  179       426.79        787.3
  180      427.243      785.267
  181      427.697        786.5
  182       428.15      789.567
  183      428.602        792.1
  184      429.055      791.933
  185      429.508      789.333
  186      429.961      787.267
  187      430.413      785.733
  188      430.866      785.333
  189      431.318        785.1
  190      431.771      785.333
  191      432.223      785.733
  192      432.675      785.633
  193      433.127        789.1
  194      433.579        794.8
  195      434.031      798.833
  196      434.483      798.567
  197      434.935      796.233
  198      435.387      795.667
  199      435.838        795.5
  200       436.29        793.3
  201      436.741        789.3
  202      437.193      785.467
  203      437.644      784.033
  204      438.095      784.533
  205      438.546      784.767
  206      438.997      783.833
  207      439.448      783.333
  208      439.899      783.767
  209       440.35        784.8
  210      440.801      785.533
  211      441.251        784.9
  212      441.702      784.633
  213      442.152      784.167
  214      442.603      784.267
  215      443.053      784.533
  216      443.503      786.367
  217      443.954      790.833
  218      444.404      794.533
  219      444.854      795.367
  220      445.304      792.933
  221      445.753      789.333
  222      446.203        787.1
  223      446.653      786.467
  224      447.102      786.767
  225      447.552      786.233
  226      448.001      784.167
  227      448.451        783.1
  228        448.9      783.767
  229      449.349        785.7
  230      449.798        786.8
  231      450.247        786.5
  232      450.696      785.867
  233      451.145      785.067
  234      451.594        784.4
  235      452.042      783.767
  236      452.491        783.9
  237      452.939      785.067
  238      453.388        786.6
  239      453.836        787.8
  240      454.285        788.4
  241      454.733      788.167
  242      455.181      786.767
  243      455.629      785.133
  244      456.077      783.967
  245      456.525      783.633
  246      456.972      783.167
  247       457.42      783.133
  248      457.868          783
  249      458.315      782.433
  250      458.763        781.6
  251       459.21        781.4
  252      459.657      781.833
  253      460.104      781.667
  254      460.552      781.867
  255      460.999      782.633
  256      461.446      784.133
  257      461.892      785.533
  258      462.339      786.067
  259      462.786      785.333
  260      463.233      784.267
  261      463.679        783.4
  262      464.125      783.633
  263      464.572      784.367
  264      465.018        784.7
  265      465.464      784.333
  266       465.91      783.833
  267      466.356      784.533
  268      466.802      785.433
  269      467.248        785.6
  270      467.694        784.5
  271       468.14        783.4
  272      468.585      782.967
  273      469.031      782.867
  274      469.476      782.967
  275      469.922        783.2
  276      470.367        785.2
  277      470.812      788.067
  278      471.257      789.733
  279      471.702        790.3
  280      472.147        790.5
  281      472.592      790.633
  282      473.037      789.667
  283      473.482      786.867
  284      473.926      783.767
  285      474.371        782.8
  286      474.815        784.7
  287      475.259      787.333
  288      475.704        787.9
  289      476.148      787.233
  290      476.592      787.667
  291      477.036      788.433
  292       477.48        788.4
  293      477.924      786.433
  294      478.368        784.5
  295      478.811      783.633
  296      479.255      783.267
  297      479.698      783.333
  298      480.142      783.167
  299      480.585        783.6
  300      481.028        784.3
  301      481.472      785.433
  302      481.915      787.067
  303      482.358        787.5
  304      482.801      787.267
  305      483.244      787.433
  306      483.686        787.9
  307      484.129      788.033
  308      484.572      786.767
  309      485.014      784.833
  310      485.456        783.8
  311      485.899      783.433
  312      486.341      784.367
  313      486.783        786.7
  314      487.225      789.467
  315      487.667      791.467
  316      488.109      791.433
  317      488.551      789.967
  318      488.993      788.633
  319      489.434      787.433
  320      489.876      786.567
  321      490.318      786.767
  322      490.759      787.833
  323        491.2      789.733
  324      491.641      790.433
  325      492.083        789.6
  326      492.524      790.133
  327      492.965      791.867
  328      493.406        792.8
  329      493.846        791.1
  330      494.287        788.5
  331      494.728      787.467
  332      495.168      787.033
  333      495.609        786.3
  334      496.049      785.233
  335      496.489      785.067
  336       496.93          786
  337       497.37      788.833
  338       497.81      791.567
  339       498.25      792.133
  340       498.69      791.567
  341      499.129      791.667
  342      499.569        794.2
  343      500.009      795.867
  344      500.448      794.767
  345      500.888      791.967
  346      501.327      789.133
  347      501.766      787.933
  348      502.206      788.067
  349      502.645        788.8
  350      503.084      789.367
  351      503.523      789.967
  352      503.961      790.867
  353        504.4      791.233
  354      504.839        791.7
  355      505.277      792.433
  356      505.716        792.6
  357      506.154      791.167
  358      506.593      788.367
  359      507.031      787.233
  360      507.469        788.1
  361      507.907        789.1
  362      508.345      788.433
  363      508.783      785.767
  364      509.221      783.367
  365      509.659      782.267
  366      510.096      783.067
  367      510.534      784.933
  368      510.971      786.333
  369      511.409      786.733
  370      511.846      787.033
  371      512.283        788.3
  372       512.72      789.433
  373      513.157      789.533
  374      513.594      788.367
  375      514.031        787.5
  376      514.468      786.767
  377      514.905      786.267
  378      515.341      785.233
  379      515.778      784.367
  380      516.214      784.367
  381       516.65      785.433
  382      517.087          787
  383      517.523      788.067
  384      517.959      788.033
  385      518.395      786.633
  386      518.831      785.533
  387      519.267      787.567
  388      519.702      790.867
  389      520.138      791.833
  390      520.574      788.933
  391      521.009      785.467
  392      521.444      784.567
  393       521.88        785.8
  394      522.315        786.9
  395       522.75        786.4
  396      523.185      785.567
  397       523.62        786.1
  398      524.055        787.6
  399       524.49      787.567
  400      524.924      785.667
  401      525.359      783.433
  402      525.794      781.967
  403      526.228        782.2
  404      526.662        783.6
  405      527.097      784.933
  406      527.531      785.933
  407      527.965        786.5
  408      528.399      786.467
  409      528.833      785.333
  410      529.267      785.033
  411        529.7        786.9
  412      530.134      788.933
  413      530.568      789.467
  414      531.001      788.233
  415      531.434      786.667
  416      531.868      785.867
  417      532.301      786.367
  418      532.734      787.633
  419      533.167      789.167
  420        533.6      789.867
  421      534.033        789.8
  422      534.466        788.7
  423      534.898      787.667
  424      535.331      789.333
  425      535.763      791.533
  426      536.196      791.833
  427      536.628        789.1
  428       537.06        785.4
  429      537.493        783.5
  430      537.925      782.567
  431      538.357      782.367
  432      538.788      781.733
  433       539.22      781.233
  434      539.652        782.3
  435      540.084        784.8
  436      540.515        787.3
  437      540.947      787.933
  438      541.378        787.3
  439      541.809        786.5
  440       542.24        786.5
  441      542.672      786.433
  442      543.103      786.767
  443      543.533      786.667
  444      543.964      785.633
  445      544.395          785
  446      544.826          785
  447      545.256        786.1
  448      545.687      786.233
  449      546.117      784.833
  450      546.547      783.733
  451      546.978      783.433
  452      547.408      783.867
  453      547.838      784.233
  454      548.268        784.4
  455      548.698        785.2
  456      549.127        785.6
  457      549.557        785.9
  458      549.987      785.933
  459      550.416        785.8
  460      550.846      785.267
  461      551.275      785.167
  462      551.704        785.8
  463      552.133      785.767
  464      552.562        785.2
  465      552.991        784.6
  466       553.42      784.667
  467      553.849      784.033
  468      554.278      783.467
  469      554.706        783.8
  470      555.135      785.433
  471      555.563      787.367
  472      555.991        788.7
  473       556.42      788.833
  474      556.848      788.167
  475      557.276      787.567
  476      557.704      787.133
  477      558.132      786.167
  478       558.56      784.467
  479      558.987      783.567
  480      559.415        784.2
  481      559.843      785.667
  482       560.27      786.667
  483      560.697        786.6
  484      561.125        785.8
  485      561.552      784.767
  486      561.979        784.7
  487      562.406      785.033
  488      562.833      785.467
  489       563.26      786.733
  490      563.686          788
  491      564.113      789.133
  492       564.54      789.233
  493      564.966      788.367
  494      565.392        787.2
  495      565.819      785.867
  496      566.245      785.633
  497      566.671      785.867
  498      567.097      786.033
  499      567.523      786.067
  500      567.949          786
  501      568.374      785.833
  502        568.8      785.533
  503      569.226        786.4
  504      569.651      788.767
  505      570.077      791.533
  506      570.502      792.733
  507      570.927      791.333
  508      571.352      789.167
  509      571.777        787.1
  510      572.202      785.667
  511      572.627        785.4
  512      573.052      785.633
  513      573.476          786
  514      573.901      785.833
  515      574.325        786.6
  516       574.75        787.6
  517      575.174      788.233
  518      575.598        788.4
  519      576.022        788.6
  520      576.446      789.567
  521       576.87      790.467
  522      577.294        790.7
  523      577.718      789.967
  524      578.142      788.267
  525      578.565      788.167
  526      578.989      788.767
  527      579.412      789.333
  528      579.835        788.9
  529      580.259      788.367
  530      580.682        789.5
  531      581.105      790.733
  532      581.528      791.367
  533      581.951      790.533
  534      582.373      788.967
  535      582.796        788.3
  536      583.219        789.1
  537      583.641      790.667
  538      584.063        790.6
  539      584.486      788.533
  540      584.908        786.4
  541       585.33      786.033
  542      585.752        786.9
  543      586.174        788.5
  544      586.596      789.467
  545      587.018        789.4
  546      587.439      789.633
  547      587.861        789.7
  548      588.282      790.733
  549      588.704        791.1
  550      589.125      790.667
  551      589.546      789.633
  552      589.967      788.767
  553      590.388      789.767
  554      590.809      791.367
  555       591.23        793.5
  556      591.651      795.633
  557      592.071      796.467
  558      592.492        795.4
  559      592.912      793.433
  560      593.333        791.5
  561      593.753      789.367
  562      594.173      787.367
  563      594.593      786.933
  564      595.013        788.1
  565      595.433        789.8
  566      595.853        791.2
  567      596.273        791.5
  568      596.693      790.733
  569      597.112        789.7
  570      597.532      788.333
  571      597.951      786.467
  572       598.37      785.033
  573      598.789      785.033
  574      599.208      786.433
  575      599.627      787.333
  576      600.046      787.333
  577      600.465      787.333
  578      600.884      788.567
  579      601.303        790.7
  580      601.721      790.533
  581      602.139        788.4
  582      602.558      786.367
  583      602.976      786.867
  584      603.394      787.967
  585      603.812      787.833
  586       604.23      787.033
  587      604.648      788.633
  588      605.066        791.5
  589      605.484        793.7
  590      605.901        794.3
  591      606.319        794.8
  592      606.736      796.033
  593      607.154      795.933
  594      607.571      794.133
  595      607.988        792.1
  596      608.405      791.333
  597      608.822      791.667
  598      609.239      792.533
  599      609.656      793.733
  600      610.072        795.4
  601      610.489      797.167
  602      610.905      797.333
  603      611.322        795.2
  604      611.738      791.733
  605      612.154        789.6
  606       612.57        789.2
  607      612.986        789.2
  608      613.402        788.1
  609      613.818      786.333
  610      614.234      785.467
  611       614.65      785.367
  612      615.065      785.467
  613      615.481      785.833
  614      615.896        786.5
  615      616.311      788.067
  616      616.727      789.133
  617      617.142        789.8
  618      617.557      790.867
  619      617.972      791.633
  620      618.386      791.933
  621      618.801      791.633
  622      619.216      791.767
  623       619.63      792.567
  624      620.045      792.633
  625      620.459      791.633
  626      620.873      790.333
  627      621.287      789.967
  628      621.702      791.067
  629      622.116      792.367
  630      622.529        793.3
  631      622.943      792.767
  632      623.357      792.533
  633      623.771        792.3
  634      624.184      792.367
  635      624.597        791.7
  636      625.011      790.133
  637      625.424        788.3
  638      625.837      787.433
  639       626.25        788.1
  640      626.663        788.4
  641      627.076      788.233
  642      627.489      788.133
  643      627.901        788.4
  644      628.314      787.767
  645      628.726      786.633
  646      629.139      786.633
  647      629.551        786.8
  648      629.963        787.4
  649      630.375      788.633
  650      630.787        790.6
  651      631.199      792.567
  652      631.611      793.367
  653      632.023        793.4
  654      632.434      792.167
  655      632.846        790.6
  656      633.257      789.967
  657      633.669      789.933
  658       634.08      790.067
  659      634.491      790.167
  660      634.902      790.433
  661      635.313        790.6
  662      635.724      789.833
  663      636.135        788.9
  664      636.545      788.667
  665      636.956        789.3
  666      637.366        789.7
  667      637.777      788.567
  668      638.187        785.7
  669      638.597        784.7
  670      639.007        786.2
  671      639.417        787.9
  672      639.827      788.733
  673      640.237      790.033
  674      640.647      792.533
  675      641.056      793.967
  676      641.466        793.5
  677      641.875      792.933
  678      642.285      792.233
  679      642.694        790.6
  680      643.103      790.167
  681      643.512      790.967
  682      643.921      792.033
  683       644.33      791.867
  684      644.739        791.3
  685      645.148      791.833
  686      645.556      793.133
  687      645.965        793.9
  688      646.373          793
  689      646.781      791.133
  690      647.189      789.033
  691      647.598        788.8
  692      648.006        789.2
  693      648.414        789.2
  694      648.821      790.067
  695      649.229        792.4
  696      649.637        794.5
  697      650.044      793.967
  698      650.452      791.133
  699      650.859      788.833
  700      651.266      788.133
  701      651.673      787.667
  702       652.08        787.3
  703      652.487      787.067
  704      652.894      787.067
  705      653.301      787.367
  706      653.708      787.233
  707      654.114      787.733
  708      654.521          790
  709      654.927      792.833
  710      655.333      793.967
  711       655.74      792.067
  712      656.146      790.067
  713      656.552      790.967
  714      656.958      793.033
  715      657.363      794.033
  716      657.769      793.267
  717      658.175      792.567
  718       658.58      792.267
  719      658.986      793.133
  720      659.391          795
  721      659.796      795.833
  722      660.201      795.267
  723      660.606      793.033
  724      661.011      790.867
  725      661.416        788.5
  726      661.821        786.5
  727      662.225      785.767
  728       662.63      785.567
  729      663.034      785.067
  730      663.439      787.367
  731      663.843      792.133
  732      664.247          798
  733      664.651      803.967
  734      665.055      807.433
  735      665.459        807.7
  736      665.863        804.8
  737      666.267        801.5
  738       666.67        800.3
  739      667.074      797.867
  740      667.477        794.9
  741       667.88        792.9
  742      668.283      792.233
  743      668.687      791.467
  744       669.09      789.167
  745      669.492      787.367
  746      669.895        786.9
  747      670.298        786.9
  748      670.701        785.6
  749      671.103          787
  750      671.505      790.333
  751      671.908        791.9
  752       672.31      789.867
  753      672.712      786.333
  754      673.114      785.567
  755      673.516      786.533
  756      673.918      787.933
  757       674.32        788.9
  758      674.721        789.3
  759      675.123      789.333
  760      675.524      788.533
  761      675.926      787.433
  762      676.327      786.667
  763      676.728      787.167
  764      677.129      788.467
  765       677.53        789.4
  766      677.931      789.367
  767      678.332      788.467
  768      678.732      788.367
  769      679.133      788.767
  770      679.533      789.567
  771      679.934        790.7
  772      680.334        791.1
  773      680.734      789.333
  774      681.134      786.333
  775      681.534        784.2
  776      681.934        784.2
  777      682.334        784.8
  778      682.733        785.1
  779      683.133      784.233
  780      683.532      783.033
  781      683.932        783.4
  782      684.331        785.2
  783       684.73      786.267
  784      685.129      785.233
  785      685.528      783.233
  786      685.927      782.267
  787      686.326      782.767
  788      686.725      783.167
  789      687.123      783.733
  790      687.522        783.5
  791       687.92      782.833
  792      688.319      782.067
  793      688.717        782.6
  794      689.115        783.9
  795      689.513      784.767
  796      689.911        784.5
  797      690.309        785.4
  798      690.706      787.533
  799      691.104      788.667
  800      691.501      787.633
  801      691.899      785.767
  802      692.296      786.167
  803      692.693        788.6
  804       693.09          791
  805      693.488      791.567
  806      693.884      789.933
  807      694.281      786.867
  808      694.678      784.533
  809      695.075        784.4
  810      695.471        785.6
  811      695.868      785.867
  812      696.264      783.833
  813       696.66        781.3
  814      697.056      779.867
  815      697.452        780.4
  816      697.848      781.867
  817      698.244        783.6
  818       698.64      784.967
  819      699.035        786.2
  820      699.431      787.067
  821      699.826      787.567
  822      700.222      787.767
  823      700.617      786.767
  824      701.012      785.267
  825      701.407      784.867
  826      701.802      785.733
  827      702.197      786.533
  828      702.592        786.4
  829      702.986      786.433
  830      703.381      786.733
  831      703.775      786.033
  832       704.17      787.267
  833      704.564      791.033
  834      704.958      794.033
  835      705.352      793.233
  836      705.746      789.067
  837       706.14      786.233
  838      706.533      785.233
  839      706.927        784.9
  840      707.321        784.5
  841      707.714          784
  842      708.107      784.867
  843      708.501      786.133
  844      708.894      786.567
  845      709.287      785.567
  846       709.68      784.467
  847      710.073      785.133
  848      710.465        786.7
  849      710.858      788.533
  850      711.251      788.533
  851      711.643        786.7
  852      712.035        785.1
  853      712.428          785
  854       712.82      786.833
  855      713.212        788.3
  856      713.604      789.633
  857      713.995      790.567
  858      714.387        790.7
  859      714.779          790
  860       715.17      788.667
  861      715.562          788
  862      715.953      788.633
  863      716.344        790.4
  864      716.735        791.8
  865      717.127      791.933
  866      717.517          791
  867      717.908      789.333
  868      718.299        787.1
  869       718.69        785.4
  870       719.08      785.467
  871      719.471        786.3
  872      719.861      787.067
  873      720.251        786.4
  874      720.641      784.567
  875      721.031        782.7
  876      721.421      782.533
  877      721.811      783.767
  878      722.201      784.433
  879       722.59      784.267
  880       722.98      783.633
  881      723.369        783.5
  882      723.759      783.433
  883      724.148      783.733
  884      724.537      785.133
  885      724.926      787.233
  886      725.315      788.667
  887      725.704          788
  888      726.092      786.633
  889      726.481        786.6
  890       726.87      787.833
  891      727.258        789.2
  892      727.646      789.633
  893      728.034      790.433
  894      728.423      791.733
  895      728.811      791.933
  896      729.198          791
  897      729.586        789.1
  898      729.974        788.6
  899      730.362      790.033
  900      730.749      793.267
  901      731.136      796.367
  902      731.524      796.433
  903      731.911      794.533
  904      732.298        792.2
  905      732.685      790.533
  906      733.072      788.967
  907      733.459      787.633
  908      733.845      786.933
  909      734.232      786.133
  910      734.618      785.733
  911      735.005      786.667
  912      735.391      788.167
  913      735.777        789.8
  914      736.163      791.333
  915      736.549      792.967
  916      736.935        793.8
  917      737.321      793.633
  918      737.706        793.8
  919      738.092        794.2
  920      738.477        794.4
  921      738.863      793.733
  922      739.248        792.2
  923      739.633        791.3
  924      740.018      791.133
  925      740.403      792.033
  926      740.788        793.3
  927      741.173        793.4
  928      741.557      792.567
  929      741.942        791.4
  930      742.326        791.1
  931      742.711      791.567
  932      743.095      791.233
  933      743.479      790.633
  934      743.863      790.367
  935      744.247      791.267
  936      744.631      792.333
  937      745.015      793.933
  938      745.398      795.967
  939      745.782      797.033
  940      746.165        796.8
  941      746.548        795.7
  942      746.932      796.167
  943      747.315      797.267
  944      747.698      797.933
  945      748.081        798.5
  946      748.463      798.467
  947      748.846      798.067
  948      749.229      797.733
  949      749.611      798.267
  950      749.993      799.633
  951      750.376      801.567
  952      750.758        804.2
  953       751.14        806.5
  954      751.522      807.433
  955      751.904      806.633
  956      752.285      805.033
  957      752.667      803.467
  958      753.049      803.067
  959       753.43      804.033
  960      753.811      805.633
  961      754.193      806.733
  962      754.574      807.667
  963      754.955      808.167
  964      755.336      807.967
  965      755.717      807.567
  966      756.097        807.4
  967      756.478      808.267
  968      756.858          809
  969      757.239      809.833
  970      757.619      810.133
  971      757.999        811.2
  972      758.379          813
  973      758.759      816.233
  974      759.139      819.433
  975      759.519      820.767
  976      759.899      820.567
  977      760.278      820.167
  978      760.658      820.133
  979      761.037      822.233
  980      761.417      825.733
  981      761.796        829.5
  982      762.175        831.8
  983      762.554      831.833
  984      762.933      831.633
  985      763.311      832.033
  986       763.69      833.333
  987      764.068      834.867
  988      764.447        836.1
  989      764.825      837.533
  990      765.203      838.667
  991      765.582      837.967
  992       765.96      836.133
  993      766.338        835.6
  994      766.715          838
  995      767.093        841.4
  996      767.471      843.833
  997      767.848      845.067
  998      768.226      847.267
  999      768.603        851.2
 1000       768.98      854.767
 1001      769.357      856.567
 1002      769.734      858.333
 1003      770.111        861.2
 1004      770.488      865.067
 1005      770.864      868.333
 1006      771.241      870.367
 1007      771.617      873.367
 1008      771.994      876.867
 1009       772.37      879.533
 1010      772.746        880.8
 1011      773.122        880.4
 1012      773.498        883.2
 1013      773.874      888.167
 1014       774.25      893.033
 1015      774.625        895.3
 1016      775.001        895.2
 1017      775.376      895.633
 1018      775.751        896.3
 1019      776.127        897.7
 1020      776.502      899.333
 1021      776.877      901.867
 1022      777.252      904.633
 1023      777.626      907.667
 1024      778.001      911.467
 1025      778.375        916.4
 1026       778.75        921.2
 1027      779.124      923.733
 1028      779.499      924.433
 1029      779.873      926.733
 1030      780.247        933.5
 1031      780.621        941.9
 1032      780.994      948.633
 1033      781.368      952.133
 1034      781.742      954.967
 1035      782.115      958.433
 1036      782.489        961.8
 1037      782.862      964.767
 1038      783.235      967.533
 1039      783.608      970.533
 1040      783.981      973.333
 1041      784.354      977.067
 1042      784.727      981.967
 1043        785.1      988.533
 1044      785.472      995.567
 1045      785.845       1002.2
 1046      786.217      1008.53
 1047      786.589       1014.2
 1048      786.961      1019.33
 1049      787.333      1023.67
 1050      787.705      1028.03
 1051      788.077       1033.7
 1052      788.449      1040.47
 1053       788.82      1048.37
 1054      789.192      1057.83
 1055      789.563      1067.43
 1056      789.934      1075.03
 1057      790.306      1080.37
 1058      790.677       1084.9
 1059      791.048       1089.5
 1060      791.419      1094.23
 1061      791.789      1100.67
 1062       792.16      1108.67
 1063       792.53      1117.77
 1064      792.901      1127.43
 1065      793.271      1136.27
 1066      793.641      1143.33
 1067      794.012       1149.2
 1068      794.382      1156.23
 1069      794.751      1163.87
 1070      795.121      1170.47
 1071      795.491      1176.17
 1072      795.861      1182.47
 1073       796.23      1190.83
 1074      796.599      1201.17
 1075      796.969      1212.27
 1076      797.338      1223.53
 1077      797.707      1235.37
 1078      798.076       1248.6
 1079      798.445      1261.53
 1080      798.813      1273.17
 1081      799.182      1283.63
 1082       799.55      1294.07
 1083      799.919      1305.37
 1084      800.287      1316.47
 1085      800.655      1328.73
 1086      801.023       1342.8
 1087      801.391       1358.7
 1088      801.759      1374.53
 1089      802.127      1388.77
 1090      802.495      1403.83
 1091      802.862      1421.53
 1092       803.23      1439.17
 1093      803.597       1454.6
 1094      803.964       1466.5
 1095      804.331      1479.43
 1096      804.698      1496.17
 1097      805.065      1513.07
 1098      805.432       1527.4
 1099      805.799       1540.9
 1100      806.165      1557.47
 1101      806.532      1576.97
 1102      806.898       1597.7
 1103      807.264      1617.87
 1104      807.631      1638.13
 1105      807.997       1659.9
 1106      808.363      1684.03
 1107      808.728      1708.93
 1108      809.094      1730.23
 1109       809.46      1747.23
 1110      809.825         1765
 1111      810.191      1786.13
 1112      810.556      1810.97
 1113      810.921       1840.1
 1114      811.286      1873.73
 1115      811.651       1907.7
 1116      812.016      1936.43
 1117      812.381      1958.97
 1118      812.745      1982.33
 1119       813.11      2011.03
 1120      813.474      2041.97
 1121      813.839      2069.97
 1122      814.203      2096.97
 1123      814.567      2126.87
 1124      814.931      2164.23
 1125      815.295      2208.23
 1126      815.659      2251.43
 1127      816.022       2291.3
 1128      816.386       2327.6
 1129      816.749         2369
 1130      817.113      2417.07
 1131      817.476      2462.47
 1132      817.839      2500.47
 1133      818.202         2533
 1134      818.565      2563.47
 1135      818.928       2592.2
 1136      819.291      2620.87
 1137      819.653      2653.37
 1138      820.016      2693.03
 1139      820.378      2735.73
 1140       820.74      2779.97
 1141      821.102         2827
 1142      821.464      2875.73
 1143      821.826      2919.97
 1144      822.188      2954.93
 1145       822.55      2984.53
 1146      822.912       3017.7
 1147      823.273      3065.43
 1148      823.634       3128.6
 1149      823.996      3197.87
 1150      824.357       3257.4
 1151      824.718      3303.73
 1152      825.079      3342.73
 1153       825.44       3387.8
 1154      825.801      3444.57
 1155      826.161      3502.97
 1156      826.522       3552.9
 1157      826.882      3595.03
 1158      827.242      3642.37
 1159      827.603      3703.43
 1160      827.963      3776.57
 1161      828.323      3854.13
 1162      828.682       3917.4
 1163      829.042       3954.9
 1164      829.402       3979.5
 1165      829.761      4011.63
 1166      830.121      4052.27
 1167       830.48      4086.13
 1168      830.839         4109
 1169      831.198      4139.07
 1170      831.557      4186.97
 1171      831.916      4242.77
 1172      832.275      4300.93
 1173      832.634      4360.93
 1174      832.992      4425.03
 1175      833.351       4490.3
 1176      833.709       4549.5
 1177      834.067       4598.3
 1178      834.425      4635.57
 1179      834.783      4671.23
 1180      835.141      4711.07
 1181      835.499      4750.63
 1182      835.857      4789.73
 1183      836.214      4827.27
 1184      836.572      4861.07
 1185      836.929      4887.03
 1186      837.286      4911.87
 1187      837.644      4929.17
 1188      838.001       4933.7
 1189      838.357       4930.3
 1190      838.714      4937.07
 1191      839.071      4966.87
 1192      839.428       5009.6
 1193      839.784      5052.33
 1194       840.14      5081.57
 1195      840.497       5099.5
 1196      840.853       5106.2
 1197      841.209      5102.77
 1198      841.565      5090.43
 1199       841.92      5086.07
 1200      842.276      5096.03
 1201      842.632       5110.1
 1202      842.987      5116.97
 1203      843.343      5110.47
 1204      843.698      5095.63
 1205      844.053       5077.8
 1206      844.408      5066.17
 1207      844.763      5051.53
 1208      845.118       5015.2
 1209      845.472      4960.63
 1210      845.827       4924.6
 1211      846.181      4914.63
 1212      846.536       4897.6
 1213       846.89      4847.27
 1214      847.244      4784.57
 1215      847.598      4746.37
 1216      847.952       4723.6
 1217      848.306       4690.4
 1218       848.66      4640.93
 1219      849.013       4593.3
 1220      849.367         4550
 1221       849.72      4506.07
 1222      850.073      4458.97
 1223      850.427      4412.27
 1224       850.78      4369.43
 1225      851.133      4323.23
 1226      851.485      4263.07
 1227      851.838       4183.2
 1228      852.191      4100.47
 1229      852.543      4027.53
 1230      852.896      3966.37
 1231      853.248      3906.93
 1232        853.6       3858.2
 1233      853.952      3817.23
 1234      854.304      3770.33
 1235      854.656       3716.3
 1236      855.007       3658.1
 1237      855.359      3602.63
 1238       855.71       3546.4
 1239      856.062       3492.4
 1240      856.413      3436.47
 1241      856.764      3370.43
 1242      857.115       3301.2
 1243      857.466       3239.1
 1244      857.817       3189.2
 1245      858.168      3146.57
 1246      858.518      3105.13
 1247      858.869      3062.43
 1248      859.219      3011.53
 1249      859.569      2955.33
 1250       859.92      2893.67
 1251       860.27      2830.53
 1252      860.619       2775.5
 1253      860.969      2730.07
 1254      861.319      2686.63
 1255      861.669      2637.33
 1256      862.018      2582.23
 1257      862.367       2527.9
 1258      862.717      2475.73
 1259      863.066       2429.6
 1260      863.415      2389.77
 1261      863.764       2349.3
 1262      864.112      2308.77
 1263      864.461       2268.6
 1264       864.81       2231.5
 1265      865.158       2195.5
 1266      865.507      2155.47
 1267      865.855      2115.17
 1268      866.203       2077.7
 1269      866.551      2044.87
 1270      866.899       2011.6
 1271      867.247      1972.93
 1272      867.594      1933.93
 1273      867.942      1900.07
 1274      868.289      1869.67
 1275      868.637      1839.87
 1276      868.984      1810.93
 1277      869.331      1783.83
 1278      869.678       1754.2
 1279      870.025      1718.17
 1280      870.372      1682.13
 1281      870.718      1654.13
 1282      871.065       1636.2
 1283      871.411      1619.97
 1284      871.758      1598.47
 1285      872.104       1572.4
 1286       872.45       1546.5
 1287      872.796       1523.3
 1288      873.142      1503.27
 1289      873.488      1483.33
 1290      873.833       1461.2
 1291      874.179       1437.2
 1292      874.524       1412.9
 1293      874.869       1390.7
 1294      875.215      1369.53
 1295       875.56      1350.77
 1296      875.905      1334.33
 1297       876.25       1320.1
 1298      876.594       1307.4
 1299      876.939      1295.43
 1300      877.283       1282.3
 1301      877.628      1268.77
 1302      877.972      1256.33
 1303      878.316      1244.63
 1304       878.66      1232.77
 1305      879.004      1219.83
 1306      879.348       1206.1
 1307      879.692      1191.73
 1308      880.035      1177.57
 1309      880.379         1165
 1310      880.722       1154.9
 1311      881.066      1147.73
 1312      881.409      1142.03
 1313      881.752      1136.13
 1314      882.095      1127.83
 1315      882.438      1117.97
 1316       882.78      1107.23
 1317      883.123      1097.13
 1318      883.465      1089.17
 1319      883.808       1082.4
 1320       884.15      1075.57
 1321      884.492       1067.5
 1322      884.834      1059.07
 1323      885.176       1051.6
 1324      885.518      1045.17
 1325      885.859      1039.93
 1326      886.201      1033.37
 1327      886.542      1024.67
 1328      886.884      1014.33
 1329      887.225      1004.83
 1330      887.566      998.467
 1331      887.907        993.8
 1332      888.248      989.667
 1333      888.589      985.167
 1334      888.929      981.433
 1335       889.27      978.533
 1336       889.61        976.2
 1337      889.951      972.667
 1338      890.291        966.4
 1339      890.631      958.367
 1340      890.971      950.633
 1341      891.311      944.433
 1342       891.65      938.867
 1343       891.99      934.333
 1344      892.329      930.333
 1345      892.669      926.467
 1346      893.008      921.667
 1347      893.347      918.633
 1348      893.686        916.2
 1349      894.025        912.2
 1350      894.364      906.933
 1351      894.703      902.133
 1352      895.041        898.8
 1353       895.38      895.167
 1354      895.718      891.967
 1355      896.056        890.4
 1356      896.395      889.233
 1357      896.733      887.867
 1358      897.071      886.567
 1359      897.408      884.367
 1360      897.746      882.933
 1361      898.084      881.867
 1362      898.421      880.633
 1363      898.758      877.067
 1364      899.095        871.4
 1365      899.433      867.033
 1366       899.77      863.633
 1367      900.106      861.033
 1368      900.443        858.8
 1369       900.78      857.133
 1370      901.116      854.867
 1371      901.453      851.667
 1372      901.789        848.1
 1373      902.125      845.467
 1374      902.461      843.633
 1375      902.797      841.933
 1376      903.133      840.133
 1377      903.469        839.2
 1378      903.804      840.167
 1379       904.14      841.767
 1380      904.475        841.6
 1381       904.81      839.467
 1382      905.146      838.567
 1383      905.481      839.433
 1384      905.815      839.567
 1385       906.15        837.5
 1386      906.485      833.867
 1387      906.819      830.433
 1388      907.154      827.533
 1389      907.488      825.233
 1390      907.822      823.367
 1391      908.156      821.567
 1392       908.49      820.567
 1393      908.824        820.4
 1394      909.158      820.733
 1395      909.492      821.133
 1396      909.825        822.4
 1397      910.159      822.733
 1398      910.492        822.2
 1399      910.825      820.833
 1400      911.158      818.633
 1401      911.491      816.167
 1402      911.824        813.7
 1403      912.157        812.5
 1404      912.489        811.3
 1405      912.822      809.433
 1406      913.154        807.9
 1407      913.486      806.767
 1408      913.818      806.333
 1409       914.15      805.767
 1410      914.482          806
 1411      914.814      807.133
 1412      915.146      808.333
 1413      915.477      809.033
 1414      915.809      809.433
 1415       916.14        810.5
 1416      916.471      811.233
 1417      916.802      810.333
 1418      917.133      808.033
 1419      917.464        806.1
 1420      917.795      805.267
 1421      918.125      805.367
 1422      918.456      805.167
 1423      918.786      805.567
 1424      919.116      806.967
 1425      919.446      808.467
 1426      919.776        808.3
 1427      920.106      806.967
 1428      920.436      805.433
 1429      920.766      803.567
 1430      921.095      801.867
 1431      921.425        800.7
 1432      921.754      801.367
 1433      922.083      801.367
 1434      922.412        800.3
 1435      922.741        798.5
 1436       923.07      797.933
 1437      923.399      798.333
 1438      923.727      797.933
 1439      924.056        796.9
 1440      924.384      795.967
 1441      924.713      796.567
 1442      925.041      797.633
 1443      925.369      797.933
 1444      925.697          797
 1445      926.024      795.667
 1446      926.352      795.033
 1447       926.68        794.7
 1448      927.007      793.967
 1449      927.334      792.967
 1450      927.662      792.833
 1451      927.989          793
 1452      928.316        793.4
 1453      928.643      793.633
 1454      928.969      793.067
 1455      929.296        791.4
 1456      929.622        790.1
 1457      929.949        790.7
 1458      930.275      791.733
 1459      930.601      791.467
 1460      930.927      790.267
 1461      931.253      789.933
 1462      931.579        789.6
 1463      931.905      789.233
 1464       932.23        789.4
 1465      932.556        789.8
 1466      932.881        789.6
 1467      933.206      788.533
 1468      933.531        788.7
 1469      933.856      790.433
 1470      934.181      792.133
 1471      934.506      791.867
 1472       934.83        790.5
 1473      935.155          790
 1474      935.479        790.1
 1475      935.803      789.967
 1476      936.128        789.9
 1477      936.452      790.167
 1478      936.775      789.933
 1479      937.099      788.633
 1480      937.423      787.267
 1481      937.746      786.633
 1482       938.07        786.6
 1483      938.393      787.467
 1484      938.716      788.667
 1485      939.039      788.967
 1486      939.362      788.567
 1487      939.685      788.867
 1488      940.008          790
 1489      940.331      790.567
 1490      940.653      789.567
 1491      940.975      788.367
 1492      941.298      788.533
 1493       941.62      789.367
 1494      941.942        790.6
 1495      942.264      790.867
 1496      942.585      791.433
 1497      942.907        791.9
 1498      943.229      791.733
 1499       943.55      790.733
 1500      943.871          790
 1501      944.192      790.233
 1502      944.513      790.733
 1503      944.834      790.967
 1504      945.155      790.733
 1505      945.476      790.933
 1506      945.796      790.733
 1507      946.117        789.1
 1508      946.437        786.6
 1509      946.757      784.067
 1510      947.078      784.333
 1511      947.398      786.567
 1512      947.717        788.8
 1513      948.037        789.8
 1514      948.357      789.633
 1515      948.676      788.467
 1516      948.996        786.4
 1517      949.315      784.167
 1518      949.634      782.767
 1519      949.953      782.767
 1520      950.272      783.833
 1521      950.591        785.8
 1522      950.909          788
 1523      951.228      789.033
 1524      951.546        788.5
 1525      951.865      786.767
 1526      952.183      785.367
 1527      952.501      785.067
 1528      952.819      784.867
 1529      953.137      784.167
 1530      953.454      783.633
 1531      953.772      783.667
 1532      954.089      784.233
 1533      954.407        784.6
 1534      954.724      784.633
 1535      955.041        784.1
 1536      955.358        783.9
 1537      955.675      784.333
 1538      955.992      784.733
 1539      956.308      785.133
 1540      956.625      785.367
 1541      956.941        786.2
 1542      957.257        786.4
 1543      957.574      785.933
 1544       957.89      785.567
 1545      958.206      785.433
 1546      958.521        785.3
 1547      958.837        785.4
 1548      959.152      786.067
 1549      959.468      787.033
 1550      959.783      786.933
 1551      960.098      788.267
 1552      960.413      791.267
 1553      960.728      793.133
 1554      961.043          792
 1555      961.358      789.267
 1556      961.672        787.9
 1557      961.987      787.067
 1558      962.301      785.767
 1559      962.615        784.5
 1560       962.93      783.667
 1561      963.244      783.033
 1562      963.557      781.933
 1563      963.871      780.833
 1564      964.185      781.667
 1565      964.498      784.033
 1566      964.812      786.267
 1567      965.125        786.6
 1568      965.438      785.633
 1569      965.751        785.6
 1570      966.064      785.933
 1571      966.377        786.4
 1572      966.689        785.7
 1573      967.002      784.633
 1574      967.314      784.067
 1575      967.626      784.867
 1576      967.939        786.7
 1577      968.251      787.533
 1578      968.563      787.333
 1579      968.874      787.033
 1580      969.186      787.133
 1581      969.498        787.1
 1582      969.809      785.567
 1583       970.12        784.1
 1584      970.431        783.1
 1585      970.743      783.133
 1586      971.053      783.867
 1587      971.364        785.7
 1588      971.675        787.9
 1589      971.986        788.1
 1590      972.296      786.767
 1591      972.606        787.1
 1592      972.917      789.467
 1593      973.227      790.633
 1594      973.537        789.3
 1595      973.847        788.2
 1596      974.156      788.767
 1597      974.466      788.767
 1598      974.775      786.867
 1599      975.085        784.1
 1600      975.394      782.067
 1601      975.703      781.167
 1602      976.012      781.833
 1603      976.321        783.2
 1604       976.63      784.433
 1605      976.938      784.867
 1606      977.247      784.667
 1607      977.555      784.667
 1608      977.863      784.833
 1609      978.172        784.6
 1610       978.48        784.6
 1611      978.787      785.067
 1612      979.095        786.6
 1613      979.403      787.433
 1614       979.71      785.933
 1615      980.018      783.867
 1616      980.325        782.5
 1617      980.632        783.4
 1618      980.939      784.667
 1619      981.246      786.067
 1620      981.553      787.567
 1621       981.86      788.567
 1622      982.166        788.4
 1623      982.473        787.4
 1624      982.779      786.233
 1625      983.085      786.567
 1626      983.391      787.833
 1627      983.697      789.067
 1628      984.003        788.6
 1629      984.309        786.4
 1630      984.614      784.767
 1631       984.92        784.2
 1632      985.225      785.033
 1633       985.53      788.033
 1634      985.835      791.933
 1635       986.14      794.633
 1636      986.445      793.333
 1637       986.75      790.033
 1638      987.054      786.667
 1639      987.359        784.8
 1640      987.663      784.833
 1641      987.967      786.033
 1642      988.271        787.3
 1643      988.575      787.767
 1644      988.879      788.067
 1645      989.183      788.533
 1646      989.487      789.267
 1647       989.79        789.2
 1648      990.093        787.4
 1649      990.397      786.067
 1650        990.7      786.133
 1651      991.003        787.5
 1652      991.306        788.2
 1653      991.608      788.267
 1654      991.911          789
 1655      992.213      790.133
 1656      992.516          790
 1657      992.818      788.433
 1658       993.12        785.3
 1659      993.422      782.733
 1660      993.724      780.867
 1661      994.026        780.6
 1662      994.327        782.1
 1663      994.629      784.233
 1664       994.93        786.1
 1665      995.232        786.3
 1666      995.533      786.033
 1667      995.834      785.967
 1668      996.135      785.267
 1669      996.435        783.2
 1670      996.736        780.4
 1671      997.036      779.433
 1672      997.337        780.5
 1673      997.637      781.367
 1674      997.937      781.633
 1675      998.237      781.867
 1676      998.537          783
 1677      998.837      784.833
 1678      999.137        786.4
 1679      999.436        787.2
 1680      999.735      787.667
 1681      1000.03      788.133
 1682      1000.33      788.867
 1683      1000.63      789.167
 1684      1000.93      788.967
 1685      1001.23      788.033
 1686      1001.53      786.567
 1687      1001.83      784.733
 1688      1002.13        783.4
 1689      1002.42      782.533
 1690      1002.72      782.933
 1691      1003.02      785.033
 1692      1003.32        787.6
 1693      1003.62      789.467
 1694      1003.91      789.033
 1695      1004.21      788.533
 1696      1004.51      788.733
 1697      1004.81      789.233
 1698       1005.1      788.567
 1699       1005.4      786.633
 1700       1005.7      785.167
 1701      1005.99      784.633
 1702      1006.29      785.767
 1703      1006.59      786.933
 1704      1006.88      788.433
 1705      1007.18      789.733
 1706      1007.48        789.9
 1707      1007.77      788.833
 1708      1008.07        786.8
 1709      1008.36        785.7
 1710      1008.66      784.733
 1711      1008.95      784.033
 1712      1009.25      783.733
 1713      1009.55        784.7
 1714      1009.84      785.833
 1715      1010.14      786.433
 1716      1010.43        786.4
 1717      1010.73      785.433
 1718      1011.02      783.967
 1719      1011.31      782.333
 1720      1011.61      782.133
 1721       1011.9      783.367
 1722       1012.2      784.033
 1723      1012.49      783.767
 1724      1012.79      783.367
 1725      1013.08      783.733
 1726      1013.37      784.833
 1727      1013.67        785.8
 1728      1013.96      786.433
 1729      1014.25      787.233
 1730      1014.55      787.533
 1731      1014.84      787.667
 1732      1015.13        787.4
 1733      1015.42      786.867
 1734      1015.72        786.3
 1735      1016.01        785.2
 1736       1016.3        783.9
 1737      1016.59      782.733
 1738      1016.89        782.3
 1739      1017.18        783.6
 1740      1017.47        785.1
 1741      1017.76      785.633
 1742      1018.05        785.1
 1743      1018.35          784
 1744      1018.64        783.5
 1745      1018.93        783.5
 1746      1019.22      784.167
 1747      1019.51      784.867
 1748       1019.8      785.033
 1749      1020.09      785.333
 1750      1020.38      785.533
 1751      1020.67      785.333
 1752      1020.96      784.467
 1753      1021.25      783.633
 1754      1021.54        783.2
 1755      1021.83        783.4
 1756      1022.12        783.9
 1757      1022.41      784.333
 1758       1022.7        784.9
 1759      1022.99      784.833
 1760      1023.28        784.7
 1761      1023.57      784.867
 1762      1023.86      785.467
 1763      1024.15      786.167
 1764      1024.44      785.167
 1765      1024.73        782.7
 1766      1025.02      780.767
 1767       1025.3      780.333
 1768      1025.59      781.667
 1769      1025.88      783.767
 1770      1026.17        786.2
 1771      1026.46      788.367
 1772      1026.74        789.9
 1773      1027.03      790.733
 1774      1027.32      790.933
 1775      1027.61      790.167
 1776      1027.89        788.7
 1777      1028.18      788.333
 1778      1028.47      788.867
 1779      1028.76      789.267
 1780      1029.04      788.167
 1781      1029.33      786.067
 1782      1029.62        785.2
 1783       1029.9      785.167
 1784      1030.19      784.767
 1785      1030.47      785.267
 1786      1030.76      787.133
 1787      1031.05        788.5
 1788      1031.33      786.933
 1789      1031.62      785.067
 1790       1031.9      785.967
 1791      1032.19      787.333
 1792      1032.47      787.633
 1793      1032.76      787.067
 1794      1033.04      787.667
 1795      1033.33        788.2
 1796      1033.61        787.8
 1797       1033.9      787.367
 1798      1034.18        787.2
 1799      1034.47      787.567
 1800      1034.75        788.3
 1801      1035.04        788.4
 1802      1035.32      787.467
 1803       1035.6      786.067
 1804      1035.89      785.167
 1805      1036.17        785.9
 1806      1036.45      787.267
 1807      1036.74        787.6
 1808      1037.02      787.767
 1809       1037.3      787.933
 1810      1037.59      788.733
 1811      1037.87      789.233
 1812      1038.15        789.2
 1813      1038.44      788.833
 1814      1038.72      788.367
 1815         1039        787.8
 1816      1039.28        787.3
 1817      1039.56      786.967
 1818      1039.85      786.567
 1819      1040.13      786.167
 1820      1040.41        785.2
 1821      1040.69        785.1
 1822      1040.97      786.333
 1823      1041.25        788.5
 1824      1041.54        789.6
 1825      1041.82      789.233
 1826       1042.1        788.1
 1827      1042.38      786.733
 1828      1042.66      785.233
 1829      1042.94      783.767
 1830      1043.22        783.2
 1831       1043.5      783.967
 1832      1043.78        785.8
 1833      1044.06      786.933
 1834      1044.34      787.467
 1835      1044.62      786.967
 1836       1044.9      787.233
 1837      1045.18      787.633
 1838      1045.46        787.9
 1839      1045.74        788.1
 1840      1046.02        787.9
 1841       1046.3      788.333
 1842      1046.58      789.333
 1843      1046.85      789.933
 1844      1047.13      789.033
 1845      1047.41        787.4
 1846      1047.69        787.9
 1847      1047.97        789.9
 1848      1048.25      790.933
 1849      1048.52        790.4
 1850       1048.8        788.7
 1851      1049.08        786.6
 1852      1049.36      784.967
 1853      1049.63      784.533
 1854      1049.91      785.667
 1855      1050.19        787.7
 1856      1050.47      790.267
 1857      1050.74        792.6
 1858      1051.02      793.133
 1859       1051.3        792.5
 1860      1051.57      791.067
 1861      1051.85        789.2
 1862      1052.13        787.5
 1863       1052.4      786.033
 1864      1052.68      785.067
 1865      1052.95      784.833
 1866      1053.23      785.667
 1867      1053.51      787.233
 1868      1053.78      787.933
 1869      1054.06        787.3
 1870      1054.33      786.933
 1871      1054.61      787.167
 1872      1054.88        787.6
 1873      1055.16        787.2
 1874      1055.43      786.433
 1875      1055.71      786.167
 1876      1055.98          786
 1877      1056.25        785.9
 1878      1056.53      784.967
 1879       1056.8      783.967
 1880      1057.08      783.567
 1881      1057.35      784.367
 1882      1057.62        785.7
 1883       1057.9      785.733
 1884      1058.17      785.867
 1885      1058.45        785.5
 1886      1058.72      785.567
 1887      1058.99      785.133
 1888      1059.26      785.667
 1889      1059.54      786.667
 1890      1059.81        787.1
 1891      1060.08        786.6
 1892      1060.35      785.167
 1893      1060.63      783.967
 1894       1060.9      784.433
 1895      1061.17      785.867
 1896      1061.44      786.433
 1897      1061.71        785.4
 1898      1061.99      785.067
 1899      1062.26      786.067
 1900      1062.53      786.433
 1901       1062.8      785.633
 1902      1063.07      785.033
 1903      1063.34      785.067
 1904      1063.61        785.2
 1905      1063.88        785.5
 1906      1064.15        786.1
 1907      1064.42        786.2
 1908       1064.7        786.2
 1909      1064.97      787.033
 1910      1065.24      789.233
 1911      1065.51      791.167
 1912      1065.78        791.4
 1913      1066.04      790.533
 1914      1066.31      789.367
 1915      1066.58      788.033
 1916      1066.85      786.533
 1917      1067.12      785.167
 1918      1067.39      785.467
 1919      1067.66      786.133
 1920      1067.93      785.233
 1921       1068.2      783.367
 1922      1068.47        781.6
 1923      1068.73      781.767
 1924         1069      783.133
 1925      1069.27      785.533
 1926      1069.54      787.033
 1927      1069.81      786.767
 1928      1070.07      785.467
 1929      1070.34      784.267
 1930      1070.61        783.3
 1931      1070.88      782.333
 1932      1071.14      782.133
 1933      1071.41        782.9
 1934      1071.68      784.267
 1935      1071.94      785.833
 1936      1072.21      786.167
 1937      1072.48      785.067
 1938      1072.74      783.267
 1939      1073.01        782.5
 1940      1073.28        783.1
 1941      1073.54      784.867
 1942      1073.81      786.833
 1943      1074.07      787.033
 1944      1074.34        785.4
 1945       1074.6      783.333
 1946      1074.87      781.867
 1947      1075.13      781.533
 1948       1075.4      782.867
 1949      1075.66      785.467
 1950      1075.93      787.767
 1951      1076.19      787.667
 1952      1076.46      786.433
 1953      1076.72      785.967
 1954      1076.99        788.3
 1955      1077.25      791.667
 1956      1077.52      792.167
 1957      1077.78        790.1
 1958      1078.04      787.733
 1959      1078.31        787.3
 1960      1078.57      786.533
 1961      1078.83        784.7
 1962       1079.1      783.667
 1963      1079.36      783.933
 1964      1079.62      784.867
 1965      1079.89      785.567
 1966      1080.15        785.9
 1967      1080.41        785.8
 1968      1080.67      785.167
 1969      1080.94      784.867
 1970       1081.2      785.033
 1971      1081.46      785.267
 1972      1081.72      784.667
 1973      1081.98      783.967
 1974      1082.24      783.133
 1975      1082.51        782.1
 1976      1082.77      781.467
 1977      1083.03        781.1
 1978      1083.29      782.433
 1979      1083.55        784.8
 1980      1083.81      786.767
 1981      1084.07      786.433
 1982      1084.33      783.967
 1983      1084.59      781.967
 1984      1084.85        781.8
 1985      1085.11      782.667
 1986      1085.37        783.5
 1987      1085.63        784.2
 1988      1085.89      784.933
 1989      1086.15      785.033
 1990      1086.41      784.867
 1991      1086.67      785.133
 1992      1086.93      786.667
 1993      1087.19          788
 1994      1087.45      788.367
 1995      1087.71        789.1
 1996      1087.97        790.7
 1997      1088.23      790.833
 1998      1088.48      789.233
 1999      1088.74      787.033
 2000         1089        786.6
 2001      1089.26      786.867
 2002      1089.52      786.267
 2003      1089.77      784.533
 2004      1090.03      781.667
 2005      1090.29      779.433
 2006      1090.55        779.2
 2007       1090.8      780.933
 2008      1091.06        782.7
 2009      1091.32      783.433
 2010      1091.57      783.033
 2011      1091.83          783
 2012      1092.09        783.8
 2013      1092.34        784.8
 2014       1092.6        786.3
 2015      1092.86        787.4
 2016      1093.11        788.2
 2017      1093.37      788.033
 2018      1093.62        786.6
 2019      1093.88      785.667
 2020      1094.13      785.933
 2021      1094.39        787.9
 2022      1094.65        790.4
 2023       1094.9      791.433
 2024      1095.16      790.967
 2025      1095.41      789.733
 2026      1095.66      789.233
 2027      1095.92      790.133
 2028      1096.17          791
 2029      1096.43      789.967
 2030      1096.68        787.2
 2031      1096.94      784.133
 2032      1097.19      782.167
 2033      1097.44      781.167
 2034       1097.7      780.933
 2035      1097.95      781.267
 2036       1098.2        782.8
 2037      1098.46      784.833
 2038      1098.71      786.233
 2039      1098.96        785.9
 2040      1099.22        784.1
 2041      1099.47      783.267
 2042      1099.72        783.8
 2043      1099.97      784.967
 2044      1100.23      785.467
 2045      1100.48      785.267
 2046      1100.73      800.133
 2047      1100.98       807.65
